1	-342.63
2049	-314.681
4097	-290.514
6145	-270.536
8193	-271.901
10241	-243.047
12289	-206.096
14337	-194.553
16385	-181.83
18433	-181.651
20481	-161.149
22529	-150.122
24577	-150.755
26625	-162.604
28673	-159.73
30721	-167.842
32769	-159.045
34817	-155.936
36865	-153.318
38913	-141.126
40961	-136.704
43009	-162.1
45057	-166.762
47105	-157.022
49153	-159.556
51201	-164.629
53249	-160.728
55297	-164.751
57345	-164.015
59393	-167.065
61441	-153.96
63489	-159.353
65537	-177.563
67585	-167.7
69633	-158.475
71681	-182.182
73729	-156.787
75777	-167.624
77825	-177.894
79873	-158.553
81921	-165.926
83969	-161.533
86017	-152.475
88065	-157.18
90113	-154.323
92161	-158.026
94209	-149.16
96257	-157.051
98305	-178.236
100353	-169.927
102401	-163.009
104449	-156.622
106497	-152.638
108545	-164.664
110593	-153.748
112641	-159.369
114689	-167.12
116737	-162.176
118785	-158.088
120833	-157.805
122881	-156.822
124929	-136.892
126977	-145.929
129025	-141.198
131073	-170.751
133121	-154.489
135169	-148.059
137217	-163.926
139265	-154.963
141313	-166.341
143361	-164.496
145409	-149.897
147457	-155.958
149505	-166.626
151553	-158.941
153601	-162.076
155649	-156.892
157697	-160.936
159745	-161.453
161793	-170.064
163841	-155.789
165889	-153.492
167937	-165.072
169985	-164.397
172033	-156.517
174081	-161.285
176129	-167.837
178177	-161.547
180225	-156.705
182273	-159.391
184321	-163.111
186369	-142.062
188417	-166.058
190465	-160.407
192513	-151.284
194561	-168.26
196609	-172.673
198657	-166.331
200705	-159.965
202753	-159.753
204801	-148.369
206849	-163.516
208897	-163.733
210945	-161.452
212993	-158.42
215041	-152.414
217089	-161.386
219137	-154.057
221185	-150.262
223233	-144.266
225281	-161.047
227329	-148.676
229377	-155.004
231425	-169.36
233473	-183.348
235521	-148.07
237569	-143.252
239617	-148.075
241665	-153.028
243713	-141.159
245761	-159.829
247809	-172.34
249857	-168.059
251905	-169.48
253953	-173.36
256001	-148.306
258049	-155.914
260097	-159.203
262145	-146.145
264193	-149.648
266241	-142.884
268289	-162.778
270337	-156.449
272385	-155.25
274433	-167.199
276481	-148.959
278529	-160.837
280577	-171.067
282625	-157.831
284673	-157.839
286721	-148.506
288769	-150.786
290817	-155.478
292865	-149.249
294913	-147.494
296961	-157.977
299009	-163.711
301057	-156.536
303105	-156.161
305153	-147.277
307201	-152.035
309249	-149.106
311297	-173.514
313345	-170.711
315393	-147.298
317441	-157.311
319489	-160.496
321537	-147.269
323585	-154.596
325633	-153.113
327681	-149.445
329729	-145.46
331777	-152.736
333825	-164.964
335873	-153.277
337921	-154.6
339969	-178.148
342017	-142.996
344065	-164.858
346113	-162.789
348161	-168.524
350209	-164.807
352257	-159.215
354305	-157.37
356353	-144.897
358401	-159.959
360449	-157.362
362497	-160.47
364545	-159.396
366593	-149.113
368641	-169.489
370689	-162.573
372737	-155.385
374785	-165.167
376833	-167.247
378881	-167.22
380929	-173.302
382977	-158.637
385025	-181.322
387073	-166.196
389121	-175.874
391169	-149.065
393217	-167.012
395265	-163.047
397313	-168.768
399361	-150.222
401409	-150.978
403457	-142.45
405505	-146.781
407553	-140.081
409601	-151.282
411649	-153.757
413697	-158.017
415745	-155.245
417793	-156.645
419841	-153.826
421889	-157.139
423937	-161.86
425985	-166.887
428033	-177.316
430081	-165.127
432129	-179.522
434177	-164.06
436225	-153.981
438273	-163.673
440321	-156.068
442369	-163.034
444417	-166.223
446465	-175.293
448513	-155.834
450561	-149.582
452609	-156.93
454657	-167.151
456705	-165.894
458753	-156.185
460801	-173.006
462849	-185.43
464897	-158.03
466945	-175.115
468993	-173.871
471041	-162.362
473089	-167.817
475137	-157.592
477185	-170.628
479233	-149.356
481281	-170.899
483329	-173.353
485377	-158.235
487425	-158.082
489473	-164.906
491521	-182.379
493569	-155.007
495617	-154.088
497665	-156.658
499713	-157.662
501761	-181.214
503809	-162.752
505857	-163.846
507905	-156.044
509953	-168.139
512001	-177.215
514049	-145.037
516097	-168.991
518145	-154.725
520193	-151.197
522241	-145.185
524289	-149.633
526337	-147.948
528385	-168.729
530433	-164.66
532481	-169.401
534529	-152.617
536577	-153.083
538625	-152.301
540673	-151.583
542721	-159.217
544769	-148.298
546817	-162.167
548865	-158.338
550913	-152.157
552961	-159.99
555009	-160.133
557057	-167.706
559105	-163.262
561153	-165.618
563201	-157.509
565249	-154.974
567297	-151.621
569345	-152.618
571393	-159.131
573441	-167.852
575489	-164.644
577537	-159.903
579585	-157.378
581633	-154.166
583681	-156.787
585729	-161.272
587777	-140.382
589825	-151.624
591873	-172.173
593921	-162.782
595969	-148.691
598017	-163.219
600065	-154.151
602113	-174.324
604161	-141.988
606209	-160.674
608257	-137.476
610305	-151.638
612353	-168.756
614401	-184.886
616449	-172.539
618497	-146.995
620545	-163.109
622593	-165.07
624641	-165.978
626689	-176.301
628737	-153.675
630785	-157.356
632833	-163.129
634881	-158.531
636929	-164.185
638977	-159.747
641025	-144.613
643073	-156.181
645121	-149.696
647169	-152.504
649217	-157.776
651265	-151.161
653313	-173.851
655361	-169.038
657409	-167.58
659457	-152.43
661505	-173.108
663553	-168.085
665601	-153.18
667649	-179.575
669697	-160.8
671745	-162.221
673793	-150.11
675841	-135.643
677889	-162.488
679937	-166.057
681985	-161.425
684033	-153.463
686081	-170.825
688129	-161.601
690177	-170.028
692225	-182.16
694273	-163.729
696321	-150.391
698369	-174.952
700417	-174.034
702465	-154.634
704513	-154.072
706561	-168.943
708609	-165.352
710657	-169.065
712705	-162.13
714753	-174.051
716801	-163.788
718849	-174.552
720897	-168.787
722945	-179.586
724993	-157.154
727041	-145.42
729089	-164.656
731137	-158.037
733185	-161.218
735233	-163.23
737281	-165.232
739329	-150.991
741377	-143.871
743425	-160.398
745473	-167.379
747521	-163.721
749569	-152.451
751617	-164.037
753665	-164.26
755713	-165.565
757761	-154.903
759809	-181.893
761857	-172.951
763905	-145.019
765953	-167.78
768001	-162.95
770049	-146.782
772097	-151.835
774145	-186.399
776193	-171.815
778241	-170.841
780289	-180.7
782337	-163.939
784385	-168.247
786433	-181.534
788481	-165.369
790529	-136.612
792577	-149.564
794625	-165.264
796673	-166.32
798721	-160.935
800769	-138.88
802817	-168.485
804865	-160.206
806913	-161.726
808961	-143.704
811009	-156.485
813057	-162.857
815105	-152.59
817153	-161.441
819201	-166.757
821249	-160.575
823297	-171.713
825345	-174.917
827393	-185.58
829441	-174.856
831489	-169.845
833537	-150.913
835585	-179.476
837633	-177.088
839681	-179.8
841729	-159.431
843777	-159.084
845825	-152.087
847873	-175.026
849921	-173.618
851969	-157.318
854017	-150.962
856065	-160.699
858113	-175.469
860161	-166.305
862209	-148.472
864257	-149.415
866305	-157.623
868353	-179.202
870401	-150.064
872449	-144.402
874497	-143.783
876545	-159.214
878593	-156.122
880641	-168.102
882689	-174.546
884737	-160.127
886785	-160.516
888833	-179.253
890881	-185.231
892929	-155.966
894977	-152.361
897025	-173.156
899073	-194.94
901121	-168.821
903169	-162.071
905217	-162.576
907265	-170.941
909313	-165.034
911361	-183.103
913409	-166.155
915457	-149.702
917505	-149.301
919553	-164.765
921601	-194.029
923649	-170.838
925697	-174.743
927745	-190.162
929793	-179.404
931841	-172.814
933889	-158.393
935937	-157.979
937985	-154.959
940033	-172.365
942081	-166.806
944129	-160.072
946177	-161.813
948225	-156.689
950273	-171.427
952321	-179.777
954369	-170.995
956417	-175.78
958465	-168.108
960513	-157.484
962561	-178.321
964609	-169.772
966657	-155.853
968705	-173.272
970753	-172.758
972801	-171.871
974849	-167.573
976897	-157.818
978945	-165.175
980993	-168.099
983041	-171.484
985089	-166.014
987137	-162.204
989185	-145.479
991233	-163.165
993281	-167.759
995329	-154.112
997377	-154.754
999425	-156.753
1001473	-156.638
1003521	-138.001
1005569	-169.247
1007617	-165.888
1009665	-157.915
1011713	-176.304
1013761	-164.694
1015809	-158.521
1017857	-137.214
1019905	-162.798
1021953	-162.388
1024001	-164.78
1026049	-169.681
1028097	-186.559
1030145	-178.295
1032193	-172.886
1034241	-169.696
1036289	-161.049
1038337	-163.88
1040385	-168.011
1042433	-172.885
1044481	-155.532
1046529	-151.161
1048577	-160.281
1050625	-146.583
1052673	-146.075
1054721	-149.875
1056769	-152.774
1058817	-162.294
1060865	-161.423
1062913	-159.949
1064961	-168.381
1067009	-167.87
1069057	-161.033
1071105	-160.619
1073153	-178.729
1075201	-170.902
1077249	-149.874
1079297	-165.015
1081345	-153.574
1083393	-142.22
1085441	-138.272
1087489	-147.916
1089537	-144.604
1091585	-152.27
1093633	-159.696
1095681	-171.98
1097729	-168.432
1099777	-146.709
1101825	-154.829
1103873	-161.43
1105921	-163.304
1107969	-142.267
1110017	-162.261
1112065	-147.183
1114113	-137.55
1116161	-159.471
1118209	-158.604
1120257	-170.307
1122305	-159.632
1124353	-144.902
1126401	-141.339
1128449	-164.263
1130497	-135.135
1132545	-137.165
1134593	-174.871
1136641	-154.08
1138689	-159.264
1140737	-173.451
1142785	-153.893
1144833	-157.731
1146881	-143.964
1148929	-157.464
1150977	-160.795
1153025	-159.945
1155073	-160.139
1157121	-163.648
1159169	-155.987
1161217	-174.951
1163265	-185.641
1165313	-176.096
1167361	-158.792
1169409	-153.412
1171457	-154.798
1173505	-158.732
1175553	-164.929
1177601	-166.548
1179649	-177.287
1181697	-172.504
1183745	-163.677
1185793	-169.056
1187841	-163.055
1189889	-164.276
1191937	-158.854
1193985	-155.116
1196033	-153.665
1198081	-169.973
1200129	-161.686
1202177	-163.438
1204225	-169.938
1206273	-162.024
1208321	-159.534
1210369	-153.296
1212417	-146.017
1214465	-169.267
1216513	-167.753
1218561	-156.858
1220609	-170.497
1222657	-146.037
1224705	-152.346
1226753	-176.54
1228801	-173.948
1230849	-169.579
1232897	-175.266
1234945	-170.462
1236993	-168.03
1239041	-169.615
1241089	-165.089
1243137	-162.404
1245185	-161.016
1247233	-156.355
1249281	-140.824
1251329	-153.957
1253377	-156.062
1255425	-153.586
1257473	-153.962
1259521	-165.939
1261569	-151.345
1263617	-143.172
1265665	-140.985
1267713	-155.937
1269761	-152.413
1271809	-155.315
1273857	-176.428
1275905	-175.957
1277953	-166.821
1280001	-164.457
1282049	-165.352
1284097	-158.021
1286145	-148.314
1288193	-147.01
1290241	-151.006
1292289	-153.456
1294337	-162.281
1296385	-169.801
1298433	-184.598
1300481	-200.031
1302529	-192.78
1304577	-169.811
1306625	-159.235
1308673	-159.222
1310721	-155.027
1312769	-171.817
1314817	-159.501
1316865	-154.207
1318913	-176.169
1320961	-181.961
1323009	-159.252
1325057	-156.688
1327105	-183.141
1329153	-172.831
1331201	-165.287
1333249	-142.619
1335297	-151.152
1337345	-140.284
1339393	-162.532
1341441	-169.911
1343489	-164.067
1345537	-150.902
1347585	-170.245
1349633	-170.171
1351681	-155.355
1353729	-165.373
1355777	-171.008
1357825	-181.245
1359873	-176.177
1361921	-175.543
1363969	-157.473
1366017	-163.426
1368065	-167.894
1370113	-157.979
1372161	-161.678
1374209	-172.536
1376257	-159.831
1378305	-155.952
1380353	-155.317
1382401	-158.415
1384449	-161.285
1386497	-159.785
1388545	-158.897
1390593	-157.982
1392641	-165.117
1394689	-187.79
1396737	-164.212
1398785	-155.282
1400833	-157.55
1402881	-144.271
1404929	-165.104
1406977	-168.104
1409025	-170.23
1411073	-171.463
1413121	-163.856
1415169	-158.306
1417217	-156.646
1419265	-168.041
1421313	-159.511
1423361	-163.43
1425409	-156.896
1427457	-181.108
1429505	-150.515
1431553	-157.757
1433601	-169.079
1435649	-149.267
1437697	-160.926
1439745	-147.821
1441793	-159.29
1443841	-143.305
1445889	-156.761
1447937	-139.333
1449985	-144.701
1452033	-146.288
1454081	-168.169
1456129	-166.081
1458177	-151.795
1460225	-152.709
1462273	-148.008
1464321	-158.738
1466369	-156.715
1468417	-144.953
1470465	-146.743
1472513	-144.576
1474561	-152.431
1476609	-161.936
1478657	-162.744
1480705	-144.861
1482753	-149.127
1484801	-154.98
1486849	-175.787
1488897	-155.51
1490945	-166.856
1492993	-143.721
1495041	-169.375
1497089	-154.113
1499137	-146.031
1501185	-164.404
1503233	-164.031
1505281	-164.607
1507329	-149.28
1509377	-150.808
1511425	-162.384
1513473	-153.287
1515521	-161.314
1517569	-156.325
1519617	-168.671
1521665	-171.892
1523713	-175.885
1525761	-171.167
1527809	-159.478
1529857	-165.983
1531905	-144.164
1533953	-153.877
1536001	-153.998
1538049	-149.978
1540097	-150.796
1542145	-157.054
1544193	-151.063
1546241	-157.316
1548289	-159.42
1550337	-164.173
1552385	-157.251
1554433	-177.438
1556481	-185.725
1558529	-164.275
1560577	-170.813
1562625	-150.478
1564673	-160.296
1566721	-167.628
1568769	-156.088
1570817	-158.305
1572865	-178.613
1574913	-189.922
1576961	-165.149
1579009	-171.757
1581057	-169.044
1583105	-172.352
1585153	-167.767
1587201	-169.388
1589249	-162.927
1591297	-155.626
1593345	-166.618
1595393	-153.053
1597441	-164.66
1599489	-153.129
1601537	-163.904
1603585	-168.292
1605633	-161.757
1607681	-154.841
1609729	-158.347
1611777	-141.06
1613825	-153.702
1615873	-151.462
1617921	-155.399
1619969	-146.336
1622017	-163.115
1624065	-163.627
1626113	-157.31
1628161	-161.425
1630209	-163.549
1632257	-164.146
1634305	-162.767
1636353	-166.528
1638401	-156.926
1640449	-160.026
1642497	-165.508
1644545	-161.44
1646593	-160.16
1648641	-166.074
1650689	-158.347
1652737	-167.217
1654785	-181.941
1656833	-162.298
1658881	-154.224
1660929	-173.266
1662977	-196.176
1665025	-169.46
1667073	-168.399
1669121	-175.666
1671169	-160.383
1673217	-155.5
1675265	-146.342
1677313	-150.116
1679361	-154.254
1681409	-151.862
1683457	-188.44
1685505	-156.591
1687553	-147.549
1689601	-173.961
1691649	-159.82
1693697	-155.371
1695745	-158.215
1697793	-161.762
1699841	-168.922
1701889	-170.161
1703937	-153.012
1705985	-149.119
1708033	-147.59
1710081	-170.274
1712129	-166.124
1714177	-154.919
1716225	-149.929
1718273	-172.464
1720321	-175.875
1722369	-158.452
1724417	-144.22
1726465	-151.851
1728513	-146.901
1730561	-143.017
1732609	-150.307
1734657	-176.885
1736705	-161.539
1738753	-179.689
1740801	-167.75
1742849	-174.107
1744897	-157.937
1746945	-145.689
1748993	-159.325
1751041	-156.958
1753089	-163.771
1755137	-180.756
1757185	-189.366
1759233	-177.771
1761281	-177.412
1763329	-173.015
1765377	-151.888
1767425	-163.983
1769473	-162.367
1771521	-187.664
1773569	-177.339
1775617	-160.247
1777665	-158.615
1779713	-155.4
1781761	-155.686
1783809	-167.98
1785857	-179.544
1787905	-159.715
1789953	-149.913
1792001	-172.189
1794049	-164.303
1796097	-188.424
1798145	-159.239
1800193	-161.776
1802241	-158.37
1804289	-160.577
1806337	-155.156
1808385	-153.903
1810433	-145.401
1812481	-153.003
1814529	-148.33
1816577	-147.941
1818625	-150.308
1820673	-147.212
1822721	-153.038
1824769	-147.72
1826817	-150.556
1828865	-146.738
1830913	-177.375
1832961	-159.865
1835009	-161.593
1837057	-148.391
1839105	-156.484
1841153	-156.638
1843201	-175.798
1845249	-164.86
1847297	-150.581
1849345	-157
1851393	-154.292
1853441	-145.811
1855489	-183.444
1857537	-142.778
1859585	-164.1
1861633	-173.807
1863681	-164.667
1865729	-161.861
1867777	-174.687
1869825	-158.507
1871873	-160.023
1873921	-162.005
1875969	-165.36
1878017	-159.609
1880065	-154.416
1882113	-151.72
1884161	-148.062
1886209	-155.442
1888257	-168.781
1890305	-154.987
1892353	-152.784
1894401	-171.629
1896449	-176.652
1898497	-170.121
1900545	-161.876
1902593	-155.538
1904641	-148.347
1906689	-163.199
1908737	-147.194
1910785	-158.557
1912833	-173.305
1914881	-164.119
1916929	-168.961
1918977	-157.345
1921025	-157.147
1923073	-167.127
1925121	-152.097
1927169	-157.079
1929217	-162.02
1931265	-166.452
1933313	-186.421
1935361	-170.513
1937409	-155.544
1939457	-152.354
1941505	-143.202
1943553	-149.063
1945601	-160.66
1947649	-166.343
1949697	-171.31
1951745	-192.465
1953793	-166.986
1955841	-147.841
1957889	-149.163
1959937	-154.309
1961985	-148.111
1964033	-140.245
1966081	-156.932
1968129	-173.372
1970177	-150.292
1972225	-160.135
1974273	-148.082
1976321	-161.123
1978369	-174.428
1980417	-177.838
1982465	-177.533
1984513	-178.411
1986561	-161.181
1988609	-156.185
1990657	-146.482
1992705	-155.545
1994753	-154.885
1996801	-148.644
1998849	-139.424
2000897	-165.347
2002945	-176.204
2004993	-181.27
2007041	-186.912
2009089	-161.169
2011137	-165.88
2013185	-155.965
2015233	-161.477
2017281	-164.589
2019329	-140.168
2021377	-154.12
2023425	-147.639
2025473	-164.55
2027521	-153.929
2029569	-156.16
2031617	-157.886
2033665	-169.586
2035713	-159.984
2037761	-162.729
2039809	-158.847
2041857	-162.949
2043905	-163.433
2045953	-162.003
2048001	-149.388
2050049	-163.894
2052097	-167.001
2054145	-172.823
2056193	-171.923
2058241	-184.36
2060289	-153.243
2062337	-151.253
2064385	-162.799
2066433	-157.07
2068481	-155
2070529	-159.891
2072577	-151.287
2074625	-148.336
2076673	-148.224
2078721	-148.95
2080769	-160.721
2082817	-165.085
2084865	-167.389
2086913	-184.516
2088961	-170.808
2091009	-171.097
2093057	-161.277
2095105	-151.913
2097153	-141.579
2099201	-137.664
2101249	-156.018
2103297	-155.705
2105345	-145.1
2107393	-150.723
2109441	-155.674
2111489	-164.273
2113537	-158.012
2115585	-161.974
2117633	-151.368
2119681	-161.988
2121729	-151.953
2123777	-165.235
2125825	-189.173
2127873	-178.255
2129921	-145.693
2131969	-168.218
2134017	-161.531
2136065	-164.789
2138113	-161.412
2140161	-163.034
2142209	-144.902
2144257	-150.611
2146305	-155.46
2148353	-157.025
2150401	-159.09
2152449	-145.418
2154497	-137.679
2156545	-162.787
2158593	-170.348
2160641	-146.386
2162689	-156.479
2164737	-165.774
2166785	-171.745
2168833	-166.753
2170881	-183.936
2172929	-176.502
2174977	-165.418
2177025	-162.788
2179073	-160.554
2181121	-153.676
2183169	-138.936
2185217	-140.156
2187265	-168.98
2189313	-168.377
2191361	-165.059
2193409	-171.746
2195457	-151.605
2197505	-161.472
2199553	-139.092
2201601	-142.178
2203649	-149.971
2205697	-156.622
2207745	-147.811
2209793	-166.782
2211841	-157.393
2213889	-160.9
2215937	-147.507
2217985	-156.383
2220033	-169.194
2222081	-186.972
2224129	-166.942
2226177	-186.757
2228225	-172.795
2230273	-149.766
2232321	-155.787
2234369	-151.809
2236417	-152.44
2238465	-165.731
2240513	-159.025
2242561	-160.757
2244609	-164.79
2246657	-162.543
2248705	-173.215
2250753	-162.737
2252801	-186.047
2254849	-193.812
2256897	-182.241
2258945	-159.032
2260993	-159.904
2263041	-159.537
2265089	-153.89
2267137	-153.779
2269185	-164.937
2271233	-152.281
2273281	-160.971
2275329	-151.775
2277377	-147.14
2279425	-149.341
2281473	-159.538
2283521	-158.141
2285569	-159.236
2287617	-174.675
2289665	-143.917
2291713	-179.917
2293761	-169.709
2295809	-171.34
2297857	-163.244
2299905	-155.612
2301953	-149.526
2304001	-160.286
2306049	-162.798
2308097	-166.468
2310145	-185.339
2312193	-169.794
2314241	-182.738
2316289	-175.427
2318337	-181.833
2320385	-184.997
2322433	-161.499
2324481	-189.045
2326529	-169.617
2328577	-172.048
2330625	-153.338
2332673	-178.318
2334721	-171.894
2336769	-169.126
2338817	-162.806
2340865	-172.624
2342913	-160.179
2344961	-163.076
2347009	-169.861
2349057	-169.15
2351105	-157.483
2353153	-167.715
2355201	-141.85
2357249	-163.573
2359297	-163.845
2361345	-135.892
2363393	-148.871
2365441	-144.615
2367489	-163.815
2369537	-146.61
2371585	-164.92
2373633	-141.973
2375681	-162.703
2377729	-149.449
2379777	-162.695
2381825	-177.44
2383873	-177.135
2385921	-177.557
2387969	-166.044
2390017	-186.981
2392065	-161.231
2394113	-151.095
2396161	-140.631
2398209	-161.14
2400257	-153.732
2402305	-152.97
2404353	-165.385
2406401	-168.682
2408449	-178.214
2410497	-169.223
2412545	-149.074
2414593	-132.375
2416641	-143.362
2418689	-168.745
2420737	-175.724
2422785	-151.694
2424833	-166.429
2426881	-158.851
2428929	-170.706
2430977	-165.132
2433025	-155.253
2435073	-156.033
2437121	-184.467
2439169	-165.175
2441217	-164.354
2443265	-172.59
2445313	-186.164
2447361	-181.509
2449409	-169.518
2451457	-169.055
2453505	-181.547
2455553	-169.639
2457601	-167.887
2459649	-157.963
2461697	-157.157
2463745	-144.409
2465793	-152.306
2467841	-161.744
2469889	-160.877
2471937	-170.892
2473985	-159.433
2476033	-176.702
2478081	-181.082
2480129	-180.924
2482177	-174.403
2484225	-160.785
2486273	-138.664
2488321	-145.638
2490369	-162.032
2492417	-180.143
2494465	-173.169
2496513	-194.333
2498561	-179.71
2500609	-164.933
2502657	-160.452
2504705	-169.996
2506753	-155.667
2508801	-172.229
2510849	-158.334
2512897	-152.51
2514945	-173.656
2516993	-158.758
2519041	-159.153
2521089	-161.046
2523137	-170.611
2525185	-174.669
2527233	-157.483
2529281	-163.806
2531329	-171.008
2533377	-170.051
2535425	-174.294
2537473	-156.819
2539521	-144.721
2541569	-140.419
2543617	-150.583
2545665	-168.91
2547713	-160.71
2549761	-166.959
2551809	-159.339
2553857	-145.779
2555905	-151.862
2557953	-165.069
2560001	-169.888
2562049	-152.628
2564097	-177.254
2566145	-169.561
2568193	-161.315
2570241	-142.547
2572289	-152.634
2574337	-148.765
2576385	-144.605
2578433	-153.202
2580481	-168.174
2582529	-146.949
2584577	-168.624
2586625	-157.395
2588673	-151.548
2590721	-161.596
2592769	-156.277
2594817	-160.891
2596865	-147.368
2598913	-156.81
2600961	-174.059
2603009	-178.549
2605057	-158.526
2607105	-169.458
2609153	-148.976
2611201	-153.075
2613249	-153.715
2615297	-147.807
2617345	-175.512
2619393	-159.054
2621441	-167.187
2623489	-154.382
2625537	-171.615
2627585	-164.323
2629633	-167.14
2631681	-167.212
2633729	-155.799
2635777	-157.551
2637825	-160.099
2639873	-173.915
2641921	-163.155
2643969	-162.456
2646017	-148.787
2648065	-171.589
2650113	-186.877
2652161	-175.198
2654209	-181.386
2656257	-180.806
2658305	-137.305
2660353	-132.387
2662401	-138.654
2664449	-142.006
2666497	-155.921
2668545	-151.018
2670593	-152.913
2672641	-156.612
2674689	-151.394
2676737	-157.788
2678785	-157.862
2680833	-164.309
2682881	-184.752
2684929	-173.226
2686977	-171.388
2689025	-155.031
2691073	-163.394
2693121	-192.347
2695169	-164.071
2697217	-155.051
2699265	-160.13
2701313	-157.339
2703361	-164.706
2705409	-179.613
2707457	-175.011
2709505	-168.63
2711553	-174.328
2713601	-164.891
2715649	-174.733
2717697	-161.984
2719745	-183.831
2721793	-164.19
2723841	-151.139
2725889	-164.197
2727937	-170.616
2729985	-166.357
2732033	-175.683
2734081	-173.906
2736129	-163.106
2738177	-156.225
2740225	-150.778
2742273	-149.919
2744321	-152.533
2746369	-161.311
2748417	-167.076
2750465	-189.558
2752513	-165.969
2754561	-169.134
2756609	-180.377
2758657	-170.978
2760705	-148.75
2762753	-151.185
2764801	-155.969
2766849	-142.431
2768897	-156.137
2770945	-160.544
2772993	-154.299
2775041	-168.345
2777089	-173.617
2779137	-179.925
2781185	-154.428
2783233	-168.732
2785281	-149.72
2787329	-157.549
2789377	-169.086
2791425	-165.486
2793473	-155.342
2795521	-159.215
2797569	-168.919
2799617	-159.064
2801665	-145.824
2803713	-148.679
2805761	-184.94
2807809	-161.277
2809857	-170.97
2811905	-154.992
2813953	-186.152
2816001	-184.65
2818049	-166.688
2820097	-176.661
2822145	-186.59
2824193	-196.694
2826241	-178.867
2828289	-159.27
2830337	-174.731
2832385	-164.845
2834433	-175.511
2836481	-164.779
2838529	-149.396
2840577	-147.48
2842625	-178.479
2844673	-179.411
2846721	-151.958
2848769	-168.232
2850817	-164.971
2852865	-156.019
2854913	-158.563
2856961	-159.334
2859009	-152.691
2861057	-155.229
2863105	-174.519
2865153	-143.846
2867201	-144.954
2869249	-161.465
2871297	-148.778
2873345	-156.55
2875393	-163.489
2877441	-154.208
2879489	-161.425
2881537	-158.218
2883585	-162.618
2885633	-159.12
2887681	-166.689
2889729	-157.543
2891777	-164.622
2893825	-166.601
2895873	-171.645
2897921	-165.812
2899969	-176.84
2902017	-171.551
2904065	-167.925
2906113	-146.081
2908161	-149.678
2910209	-157.342
2912257	-151.214
2914305	-144.864
2916353	-163.265
2918401	-179.621
2920449	-158.622
2922497	-184.171
2924545	-146.117
2926593	-155.398
2928641	-170.681
2930689	-166.08
2932737	-148.987
2934785	-161.46
2936833	-153.617
2938881	-146.559
2940929	-178.837
2942977	-167.731
2945025	-176.847
2947073	-179.169
2949121	-161.484
2951169	-157.693
2953217	-169.139
2955265	-165.958
2957313	-169.804
2959361	-166.669
2961409	-153.387
2963457	-159.812
2965505	-154.008
2967553	-149.606
2969601	-156.87
2971649	-157.192
2973697	-147.629
2975745	-146.324
2977793	-150.798
2979841	-141.666
2981889	-154.507
2983937	-160.585
2985985	-151.823
2988033	-164.965
2990081	-158.389
2992129	-183.856
2994177	-158.501
2996225	-174.689
2998273	-162.39
3000321	-160.763
3002369	-155.501
3004417	-149.155
3006465	-161.395
3008513	-160.289
3010561	-165.327
3012609	-154.587
3014657	-161.069
3016705	-161.45
3018753	-168.611
3020801	-184.04
3022849	-174.8
3024897	-179.126
3026945	-158.44
3028993	-148.738
3031041	-151.065
3033089	-147.258
3035137	-142.234
3037185	-155.154
3039233	-141.983
3041281	-148.475
3043329	-149.648
3045377	-164.912
3047425	-153.015
3049473	-157.766
3051521	-162.678
3053569	-169.635
3055617	-146.912
3057665	-169.941
3059713	-176.053
3061761	-166.806
3063809	-176.773
3065857	-188.162
3067905	-178.612
3069953	-165.973
3072001	-173.505
3074049	-179.517
3076097	-178.082
3078145	-172.586
3080193	-189.84
3082241	-166.888
3084289	-165.37
3086337	-153.767
3088385	-154.995
3090433	-167.363
3092481	-164.23
3094529	-154.794
3096577	-162.882
3098625	-157.471
3100673	-171.934
3102721	-162.192
3104769	-189.877
3106817	-179.649
3108865	-166.911
3110913	-150.4
3112961	-170.615
3115009	-143.444
3117057	-146.434
3119105	-159.376
3121153	-172.015
3123201	-145.301
3125249	-146.274
3127297	-148.749
3129345	-160.379
3131393	-140.615
3133441	-151.618
3135489	-149.736
3137537	-160.536
3139585	-184.511
3141633	-186.381
3143681	-182.693
3145729	-171.901
3147777	-163.231
3149825	-160.386
3151873	-160.911
3153921	-160.592
3155969	-158.158
3158017	-155.629
3160065	-149.087
3162113	-153.694
3164161	-177.729
3166209	-151.061
3168257	-178.014
3170305	-150.352
3172353	-168.44
3174401	-156.212
3176449	-159.616
3178497	-163.729
3180545	-172.669
3182593	-177.124
3184641	-151.174
3186689	-165.749
3188737	-159.735
3190785	-164.212
3192833	-175.872
3194881	-179.147
3196929	-172.122
3198977	-172.147
3201025	-157.119
3203073	-157.058
3205121	-161.088
3207169	-162.508
3209217	-161.372
3211265	-154.427
3213313	-167.774
3215361	-154.841
3217409	-172.701
3219457	-157.565
3221505	-170.507
3223553	-158.969
3225601	-142.33
3227649	-151.454
3229697	-166.108
3231745	-171.296
3233793	-158.386
3235841	-155.445
3237889	-143.586
3239937	-158.496
3241985	-157.958
3244033	-159.408
3246081	-162.484
3248129	-168.735
3250177	-168.852
3252225	-175.442
3254273	-189.863
3256321	-168.841
3258369	-174.734
3260417	-169.706
3262465	-165.725
3264513	-145.544
3266561	-157.526
3268609	-158.131
3270657	-148.211
3272705	-149.007
3274753	-153.669
3276801	-149.895
3278849	-142.052
3280897	-146.912
3282945	-174.75
3284993	-170.476
3287041	-166.968
3289089	-151.628
3291137	-162.549
3293185	-166.887
3295233	-171.582
3297281	-162.963
3299329	-168.576
3301377	-156.423
3303425	-174.535
3305473	-154.387
3307521	-158.445
3309569	-174.215
3311617	-151.024
3313665	-180.163
3315713	-154.378
3317761	-161.512
3319809	-173.21
3321857	-156.925
3323905	-163.862
3325953	-164.619
3328001	-162.599
3330049	-165.942
3332097	-159.872
3334145	-157.071
3336193	-174.059
3338241	-163.08
3340289	-151.441
3342337	-169.479
3344385	-153.976
3346433	-164.735
3348481	-159.924
3350529	-150.202
3352577	-166.927
3354625	-161.123
3356673	-179.038
3358721	-159.448
3360769	-166.611
3362817	-159.851
3364865	-161.212
3366913	-168.162
3368961	-190.572
3371009	-168.647
3373057	-155.72
3375105	-156.727
3377153	-146.173
3379201	-155.038
3381249	-147.899
3383297	-155.755
3385345	-146.879
3387393	-160.256
3389441	-160.446
3391489	-167.458
3393537	-172.711
3395585	-170.608
3397633	-183.085
3399681	-161.543
3401729	-165.537
3403777	-166.212
3405825	-164.716
3407873	-188.329
3409921	-188.382
3411969	-176.688
3414017	-200.453
3416065	-179.396
3418113	-172.335
3420161	-163.325
3422209	-171.282
3424257	-168.603
3426305	-155.978
3428353	-142.501
3430401	-161.095
3432449	-171.788
3434497	-149.724
3436545	-150.076
3438593	-156.05
3440641	-154.593
3442689	-160.45
3444737	-152.448
3446785	-150.794
3448833	-157.837
3450881	-166.469
3452929	-166.616
3454977	-171.21
3457025	-166.633
3459073	-150.42
3461121	-146.433
3463169	-169.338
3465217	-167.983
3467265	-185.39
3469313	-136.4
3471361	-164.915
3473409	-152
3475457	-153.534
3477505	-162.028
3479553	-157.43
3481601	-155.772
3483649	-162.747
3485697	-181.312
3487745	-159.88
3489793	-171.357
3491841	-163.023
3493889	-161.747
3495937	-146.62
3497985	-149.9
3500033	-182.045
3502081	-164.749
3504129	-175.187
3506177	-176.246
3508225	-159.9
3510273	-155.598
3512321	-168.093
3514369	-168.075
3516417	-150.753
3518465	-143.971
3520513	-150.523
3522561	-160.452
3524609	-172.075
3526657	-159.798
3528705	-178.156
3530753	-179.334
3532801	-165.915
3534849	-170.76
3536897	-165.195
3538945	-172.82
3540993	-184.385
3543041	-163.648
3545089	-167.814
3547137	-177.673
3549185	-158.071
3551233	-171.669
3553281	-159.943
3555329	-167.131
3557377	-164.915
3559425	-153.463
3561473	-164.898
3563521	-158.765
3565569	-168.085
3567617	-159.01
3569665	-162.902
3571713	-165.334
3573761	-166.847
3575809	-152.629
3577857	-155.301
3579905	-160.434
3581953	-168.914
3584001	-159.754
3586049	-170.556
3588097	-168.303
3590145	-168.965
3592193	-165.618
3594241	-170.599
3596289	-170.18
3598337	-145.213
3600385	-167.644
3602433	-157.525
3604481	-165.101
3606529	-169.777
3608577	-158.332
3610625	-158.768
3612673	-167.879
3614721	-154.066
3616769	-142.804
3618817	-142.515
3620865	-170.046
3622913	-147.602
3624961	-154.553
3627009	-157.106
3629057	-154.513
3631105	-159.506
3633153	-162.429
3635201	-141.031
3637249	-159.113
3639297	-172.807
3641345	-152.84
3643393	-158.834
3645441	-160.986
3647489	-152.431
3649537	-149.527
3651585	-154.025
3653633	-157.449
3655681	-158.769
3657729	-161.783
3659777	-159.644
3661825	-162.442
3663873	-152.452
3665921	-174.315
3667969	-177.489
3670017	-173.921
3672065	-168.615
3674113	-171.847
3676161	-160.685
3678209	-180.278
3680257	-158.182
3682305	-155.961
3684353	-154.123
3686401	-141.716
3688449	-152.236
3690497	-154.071
3692545	-162.067
3694593	-150.167
3696641	-148.793
3698689	-150.846
3700737	-165.487
3702785	-154.636
3704833	-173.137
3706881	-159.572
3708929	-152.88
3710977	-153.848
3713025	-168.257
3715073	-156.007
3717121	-173.056
3719169	-169.828
3721217	-161.165
3723265	-163.661
3725313	-158.374
3727361	-155.717
3729409	-152.407
3731457	-165.171
3733505	-174.754
3735553	-160.863
3737601	-169.924
3739649	-163.752
3741697	-167.297
3743745	-178.731
3745793	-179.609
3747841	-140.11
3749889	-159.899
3751937	-142.417
3753985	-148.064
3756033	-155.18
3758081	-157.709
3760129	-163.52
3762177	-150.959
3764225	-148.588
3766273	-162.932
3768321	-157.329
3770369	-169.456
3772417	-146.325
3774465	-174.131
3776513	-174.585
3778561	-161.591
3780609	-154.151
3782657	-152.834
3784705	-154.712
3786753	-160.293
3788801	-153.454
3790849	-191.342
3792897	-185.965
3794945	-176.294
3796993	-171.513
3799041	-157.498
3801089	-163.211
3803137	-166.889
3805185	-161.063
3807233	-152.321
3809281	-152.027
3811329	-147.686
3813377	-140.586
3815425	-154.287
3817473	-164.908
3819521	-149.894
3821569	-147.46
3823617	-151.782
3825665	-169.798
3827713	-158.936
3829761	-162.011
3831809	-157.785
3833857	-148.026
3835905	-145.746
3837953	-161.482
3840001	-168.984
3842049	-167.605
3844097	-161.346
3846145	-159.901
3848193	-164.85
3850241	-157.996
3852289	-159.439
3854337	-157.013
3856385	-154.277
3858433	-156.085
3860481	-161.143
3862529	-154.994
3864577	-147.76
3866625	-157.219
3868673	-163.949
3870721	-163.718
3872769	-160.654
3874817	-146.081
3876865	-146.525
3878913	-168.452
3880961	-157.221
3883009	-165.989
3885057	-165.122
3887105	-175.81
3889153	-178.166
3891201	-172.267
3893249	-175.328
3895297	-153.221
3897345	-154.563
3899393	-159.986
3901441	-150.358
3903489	-144.244
3905537	-155.373
3907585	-164.554
3909633	-157.558
3911681	-163.307
3913729	-161.437
3915777	-162.553
3917825	-154.875
3919873	-150.317
3921921	-166.72
3923969	-186.645
3926017	-158.588
3928065	-150.933
3930113	-158.785
3932161	-151.049
3934209	-141.649
3936257	-158.335
3938305	-152.349
3940353	-156.746
3942401	-155.629
3944449	-149.479
3946497	-148.142
3948545	-151.208
3950593	-159.785
3952641	-161.959
3954689	-168.426
3956737	-171.525
3958785	-151.91
3960833	-165.913
3962881	-142.125
3964929	-165.314
3966977	-174.393
3969025	-169.648
3971073	-147.424
3973121	-146.868
3975169	-140.418
3977217	-174.312
3979265	-149.084
3981313	-167.884
3983361	-179.484
3985409	-182.6
3987457	-185.916
3989505	-167.131
3991553	-171.541
3993601	-163.812
3995649	-139.495
3997697	-157.072
3999745	-170.751
4001793	-168.977
4003841	-168.41
4005889	-159.621
4007937	-151.446
4009985	-173.892
4012033	-158.423
4014081	-163.478
4016129	-160.78
4018177	-156.977
4020225	-167.042
4022273	-143.385
4024321	-145.226
4026369	-151.347
4028417	-160.1
4030465	-165.739
4032513	-166.548
4034561	-178.569
4036609	-160.624
4038657	-154.352
4040705	-153.281
4042753	-160.261
4044801	-160.181
4046849	-155.985
4048897	-156.959
4050945	-167.92
4052993	-157.331
4055041	-171.839
4057089	-192.953
4059137	-173.097
4061185	-160.933
4063233	-178.981
4065281	-167.524
4067329	-163.911
4069377	-155.046
4071425	-156.684
4073473	-165.755
4075521	-163.799
4077569	-177.43
4079617	-175.897
4081665	-156.795
4083713	-157.723
4085761	-175.606
4087809	-178.818
4089857	-180.2
4091905	-158.952
4093953	-154.485
4096001	-171.937
4098049	-153.274
4100097	-167.884
4102145	-177.855
4104193	-171.791
4106241	-165.938
4108289	-181.821
4110337	-164.724
4112385	-158.323
4114433	-157.176
4116481	-162.448
4118529	-168.573
4120577	-179.825
4122625	-167.049
4124673	-161.907
4126721	-164.502
4128769	-167.218
4130817	-156.602
4132865	-171.195
4134913	-157.828
4136961	-166.135
4139009	-160.253
4141057	-165.083
4143105	-151.107
4145153	-146.152
4147201	-153.967
4149249	-165.602
4151297	-164.072
4153345	-161.688
4155393	-161.045
4157441	-156.952
4159489	-151.324
4161537	-147.617
4163585	-157.034
4165633	-161.22
4167681	-160.528
4169729	-166.587
4171777	-163.732
4173825	-151.859
4175873	-167.16
4177921	-152.381
4179969	-174.01
4182017	-165.432
4184065	-171.764
4186113	-179.808
4188161	-153.182
4190209	-151.131
4192257	-145.185
4194305	-154.919
4196353	-137.468
4198401	-140.372
4200449	-158.854
4202497	-172.226
4204545	-163.104
4206593	-174.359
4208641	-159.609
4210689	-147.702
4212737	-149.151
4214785	-152.617
4216833	-146.471
4218881	-137.27
4220929	-152.276
4222977	-165.167
4225025	-140.696
4227073	-156.958
4229121	-170.938
4231169	-155.678
4233217	-173.547
4235265	-156.889
4237313	-157.441
4239361	-166.49
4241409	-173.062
4243457	-161.205
4245505	-161.151
4247553	-183.6
4249601	-163.657
4251649	-154.285
4253697	-171.004
4255745	-160.173
4257793	-163.311
4259841	-160.91
4261889	-167.516
4263937	-146.948
4265985	-150.475
4268033	-169.992
4270081	-181.235
4272129	-166.607
4274177	-171.083
4276225	-160.941
4278273	-173.452
4280321	-156.22
4282369	-148.54
4284417	-163.905
4286465	-154.126
4288513	-166.056
4290561	-141.457
4292609	-163.815
4294657	-173.475
4296705	-158.7
4298753	-154.418
4300801	-158.646
4302849	-165.715
4304897	-165.743
4306945	-161.964
4308993	-145.68
4311041	-150.641
4313089	-142.614
4315137	-152.073
4317185	-154.795
4319233	-161.797
4321281	-150.646
4323329	-164.801
4325377	-154.058
4327425	-156.97
4329473	-149.689
4331521	-164.244
4333569	-150.205
4335617	-167.459
4337665	-161.052
4339713	-152.952
4341761	-163.764
4343809	-151.051
4345857	-157.561
4347905	-148.727
4349953	-151.554
4352001	-163.492
4354049	-177.881
4356097	-158.723
4358145	-154.122
4360193	-142.987
4362241	-153.487
4364289	-169.983
4366337	-153.862
4368385	-169.735
4370433	-168.858
4372481	-158.521
4374529	-161.217
4376577	-149.596
4378625	-184.043
4380673	-162.973
4382721	-153.799
4384769	-158.977
4386817	-151.901
4388865	-161.513
4390913	-169.389
4392961	-186.118
4395009	-181.399
4397057	-167.503
4399105	-162.847
4401153	-153.031
4403201	-148.114
4405249	-165.618
4407297	-155.36
4409345	-160.716
4411393	-171.114
4413441	-166.814
4415489	-173.64
4417537	-176.699
4419585	-170.035
4421633	-164.617
4423681	-148.659
4425729	-155.081
4427777	-149.719
4429825	-159.693
4431873	-154.8
4433921	-163.118
4435969	-134.14
4438017	-147.261
4440065	-180.699
4442113	-160.619
4444161	-166.214
4446209	-165.656
4448257	-147.843
4450305	-150.828
4452353	-146.398
4454401	-154.684
4456449	-154.863
4458497	-162.542
4460545	-163.84
4462593	-161.577
4464641	-152.146
4466689	-159.537
4468737	-144.576
4470785	-164.123
4472833	-161.864
4474881	-148.021
4476929	-172.738
4478977	-149.217
4481025	-154.694
4483073	-158.898
4485121	-152.617
4487169	-171.086
4489217	-162.62
4491265	-152.424
4493313	-158.699
4495361	-152.236
4497409	-160.84
4499457	-152.321
4501505	-161.393
4503553	-162.827
4505601	-160.658
4507649	-153.771
4509697	-142.342
4511745	-145.04
4513793	-165.432
4515841	-169.202
4517889	-160.697
4519937	-166.618
4521985	-178.692
4524033	-166.391
4526081	-164.309
4528129	-160.188
4530177	-159.491
4532225	-172.875
4534273	-157.644
4536321	-158.863
4538369	-158.128
4540417	-160.901
4542465	-146.862
4544513	-159.973
4546561	-148.218
4548609	-148.368
4550657	-150.793
4552705	-180.632
4554753	-158.496
4556801	-159.072
4558849	-167.93
4560897	-159.523
4562945	-156.58
4564993	-152.294
4567041	-159.253
4569089	-138.157
4571137	-142.249
4573185	-157.785
4575233	-170.937
4577281	-136.229
4579329	-155.2
4581377	-167.207
4583425	-170.962
4585473	-152.8
4587521	-150.765
4589569	-147.598
4591617	-155.232
4593665	-165.843
4595713	-181.909
4597761	-184.025
4599809	-164.002
4601857	-160.805
4603905	-160.266
4605953	-151.169
4608001	-156.64
4610049	-142.527
4612097	-150.882
4614145	-151.988
4616193	-141.163
4618241	-146.47
4620289	-159.1
4622337	-161.975
4624385	-149.996
4626433	-154.174
4628481	-139.423
4630529	-148.839
4632577	-158.753
4634625	-165.824
4636673	-172.99
4638721	-172.286
4640769	-165.46
4642817	-166.241
4644865	-156.543
4646913	-160.882
4648961	-159.659
4651009	-160.969
4653057	-160.272
4655105	-176.942
4657153	-165.697
4659201	-168.85
4661249	-166.436
4663297	-165.112
4665345	-164.487
4667393	-153.74
4669441	-174.698
4671489	-170.803
4673537	-154.341
4675585	-169.87
4677633	-171.686
4679681	-166.301
4681729	-173.233
4683777	-156.748
4685825	-149.168
4687873	-160.17
4689921	-159.248
4691969	-163.571
4694017	-161.788
4696065	-151.381
4698113	-156.772
4700161	-168.143
4702209	-164.866
4704257	-147.821
4706305	-177.357
4708353	-168.559
4710401	-163.834
4712449	-150.946
4714497	-176.771
4716545	-160.599
4718593	-159.877
4720641	-152.451
4722689	-155.379
4724737	-149.963
4726785	-163.962
4728833	-177.963
4730881	-168.482
4732929	-144.428
4734977	-158.406
4737025	-165.212
4739073	-142.46
4741121	-153.18
4743169	-149.929
4745217	-147.355
4747265	-153.869
4749313	-158.901
4751361	-137.255
4753409	-145.423
4755457	-153.858
4757505	-145.344
4759553	-141.159
4761601	-168.547
4763649	-171.281
4765697	-155.11
4767745	-156.651
4769793	-148.712
4771841	-154.237
4773889	-159.43
4775937	-170.428
4777985	-166.243
4780033	-161.835
4782081	-171.393
4784129	-167.973
4786177	-176.147
4788225	-173.181
4790273	-178.166
4792321	-191.187
4794369	-176.585
4796417	-158.554
4798465	-176.658
4800513	-175.89
4802561	-159.597
4804609	-163.636
4806657	-161.488
4808705	-162.022
4810753	-166.013
4812801	-160.657
4814849	-164.513
4816897	-157.939
4818945	-161.668
4820993	-176.858
4823041	-167.081
4825089	-184.843
4827137	-171.096
4829185	-168.856
4831233	-156.851
4833281	-169.103
4835329	-161.609
4837377	-162.8
4839425	-157.984
4841473	-168.168
4843521	-159.486
4845569	-178.903
4847617	-162.525
4849665	-169.488
4851713	-160.412
4853761	-156.622
4855809	-156.277
4857857	-150.17
4859905	-144.036
4861953	-153.02
4864001	-164.236
4866049	-156.53
4868097	-151.443
4870145	-152.554
4872193	-154.189
4874241	-173.007
4876289	-164.763
4878337	-171.332
4880385	-160.557
4882433	-158.215
4884481	-152.384
4886529	-146.85
4888577	-142.925
4890625	-156.003
4892673	-162.872
4894721	-152.99
4896769	-153.757
4898817	-162.057
4900865	-151.778
4902913	-169.344
4904961	-166.721
4907009	-160.466
4909057	-172.072
4911105	-150.871
4913153	-143.624
4915201	-161.471
4917249	-170.549
4919297	-167.528
4921345	-165.845
4923393	-150.88
4925441	-149.903
4927489	-158.709
4929537	-169.899
4931585	-152.608
4933633	-158.911
4935681	-160.365
4937729	-168.831
4939777	-170.513
4941825	-169.194
4943873	-141.968
4945921	-152.734
4947969	-158.286
4950017	-163.176
4952065	-160.186
4954113	-150.815
4956161	-152.911
4958209	-161.258
4960257	-160.264
4962305	-177.902
4964353	-178.763
4966401	-178.44
4968449	-182.261
4970497	-168.954
4972545	-148.364
4974593	-162.384
4976641	-161.299
4978689	-155.877
4980737	-160.262
4982785	-161.774
4984833	-156.894
4986881	-161.977
4988929	-146.478
4990977	-162.807
4993025	-163.21
4995073	-151.427
4997121	-135.416
4999169	-166.471
5001217	-167.838
5003265	-176.066
5005313	-143.103
5007361	-176.991
5009409	-148.244
5011457	-155.994
5013505	-168.049
5015553	-169.48
5017601	-158.137
5019649	-168.921
5021697	-149.338
5023745	-157.457
5025793	-150.186
5027841	-173.02
5029889	-174.819
5031937	-179.196
5033985	-177.681
5036033	-166.522
5038081	-184.081
5040129	-167.256
5042177	-176.397
5044225	-178.704
5046273	-177.244
5048321	-183.461
5050369	-176.976
5052417	-167.585
5054465	-171.496
5056513	-158.44
5058561	-160.378
5060609	-170.944
5062657	-158.34
5064705	-170.836
5066753	-174.805
5068801	-166.874
5070849	-165.96
5072897	-178.397
5074945	-173.583
5076993	-153.266
5079041	-172.582
5081089	-155.741
5083137	-172.813
5085185	-183.755
5087233	-183.385
5089281	-190.425
5091329	-156.876
5093377	-157.113
5095425	-160.539
5097473	-159.155
5099521	-160.573
5101569	-151.8
5103617	-162.472
5105665	-149.157
5107713	-147.359
5109761	-145.557
5111809	-161.375
5113857	-147.588
5115905	-155.85
5117953	-157.707
5120001	-158.999
5122049	-160.135
5124097	-169.928
5126145	-158.475
5128193	-151.245
5130241	-149.71
5132289	-159.719
5134337	-157.687
5136385	-171.819
5138433	-175.617
5140481	-165.693
5142529	-169.85
5144577	-160.798
5146625	-166.829
5148673	-157.878
5150721	-164.681
5152769	-178.008
5154817	-170.451
5156865	-152.533
5158913	-156.693
5160961	-153.579
5163009	-148.874
5165057	-162.266
5167105	-157.924
5169153	-167.918
5171201	-158.189
5173249	-162.468
5175297	-165.267
5177345	-173.055
5179393	-166.278
5181441	-157.708
5183489	-165.331
5185537	-161.719
5187585	-168.063
5189633	-179.77
5191681	-166.529
5193729	-156.962
5195777	-150.643
5197825	-152.409
5199873	-142.791
5201921	-161.315
5203969	-159.991
5206017	-147.109
5208065	-164.592
5210113	-149.762
5212161	-145.178
5214209	-159.705
5216257	-168.39
5218305	-178.652
5220353	-181.521
5222401	-167.724
5224449	-166.187
5226497	-168.67
5228545	-157.131
5230593	-149.57
5232641	-162.099
5234689	-162.171
5236737	-168.912
5238785	-157.195
5240833	-165.914
5242881	-157.606
5244929	-158.209
5246977	-145.588
5249025	-143.214
5251073	-145.134
5253121	-169.492
5255169	-188.374
5257217	-158.81
5259265	-167.821
5261313	-184.823
5263361	-174.713
5265409	-154.999
5267457	-150.741
5269505	-154.551
5271553	-159.534
5273601	-159.55
5275649	-170.108
5277697	-171.66
5279745	-165.682
5281793	-177.553
5283841	-173.411
5285889	-166.357
5287937	-156.493
5289985	-164.696
5292033	-159.194
5294081	-160.304
5296129	-152.653
5298177	-152.853
5300225	-158.972
5302273	-162.045
5304321	-160.546
5306369	-181.334
5308417	-180.984
5310465	-179.475
5312513	-187.633
5314561	-182.878
5316609	-151.971
5318657	-142.337
5320705	-159.377
5322753	-167.707
5324801	-180.979
5326849	-162.014
5328897	-155.246
5330945	-158.511
5332993	-163.863
5335041	-147.273
5337089	-131.383
5339137	-151.923
5341185	-158.376
5343233	-162.766
5345281	-151.152
5347329	-140.275
5349377	-152.472
5351425	-153.168
5353473	-154.452
5355521	-147.527
5357569	-141.212
5359617	-163.655
5361665	-164.09
5363713	-157.337
5365761	-186.143
5367809	-162.202
5369857	-165.323
5371905	-162.148
5373953	-164.37
5376001	-159.977
5378049	-150.794
5380097	-150.623
5382145	-163.344
5384193	-155.289
5386241	-157.659
5388289	-162.802
5390337	-150.018
5392385	-151.478
5394433	-165.544
5396481	-155.324
5398529	-152.416
5400577	-163.119
5402625	-153.525
5404673	-159.44
5406721	-174.674
5408769	-178.064
5410817	-145.499
5412865	-159.258
5414913	-163.92
5416961	-152.94
5419009	-145.14
5421057	-168.648
5423105	-165.862
5425153	-162.811
5427201	-175.528
5429249	-146.308
5431297	-172.771
5433345	-183.191
5435393	-173.427
5437441	-153.711
5439489	-151.202
5441537	-148.521
5443585	-152.748
5445633	-166.05
5447681	-159.908
5449729	-158.224
5451777	-166.989
5453825	-172.535
5455873	-160.912
5457921	-145.933
5459969	-139.045
5462017	-168.819
5464065	-177.883
5466113	-186.83
5468161	-168.149
5470209	-172.475
5472257	-148.497
5474305	-157.689
5476353	-161.834
5478401	-158.171
5480449	-153.186
5482497	-161.358
5484545	-171.943
5486593	-168.193
5488641	-185.324
5490689	-158.657
5492737	-172.997
5494785	-173.753
5496833	-151.563
5498881	-155.089
5500929	-155.25
5502977	-140.839
5505025	-154.749
5507073	-140.831
5509121	-143.069
5511169	-152.277
5513217	-156.207
5515265	-160.612
5517313	-157.365
5519361	-155.892
5521409	-161.561
5523457	-155.566
5525505	-168.901
5527553	-151.761
5529601	-152.883
5531649	-153.344
5533697	-150.705
5535745	-158.05
5537793	-159.576
5539841	-154.665
5541889	-151.314
5543937	-153.655
5545985	-163.437
5548033	-146.83
5550081	-144.712
5552129	-170.536
5554177	-146.139
5556225	-150.894
5558273	-152.565
5560321	-152.224
5562369	-165.324
5564417	-144.511
5566465	-158.304
5568513	-156.436
5570561	-147.97
5572609	-140.271
5574657	-173.18
5576705	-172.29
5578753	-157.106
5580801	-160.548
5582849	-182.069
5584897	-160.906
5586945	-159.443
5588993	-161.652
5591041	-161.569
5593089	-153.979
5595137	-160.927
5597185	-147.845
5599233	-160.01
5601281	-160.47
5603329	-161.376
5605377	-168.54
5607425	-161.173
5609473	-175.333
5611521	-174.902
5613569	-150.051
5615617	-150.914
5617665	-154.238
5619713	-150.89
5621761	-187.188
5623809	-170.552
5625857	-159.367
5627905	-163.841
5629953	-177.665
5632001	-178.909
5634049	-167.995
5636097	-182.092
5638145	-160.849
5640193	-165.374
5642241	-150.554
5644289	-157.979
5646337	-157.724
5648385	-177.238
5650433	-174.445
5652481	-164.624
5654529	-165.689
5656577	-130.409
5658625	-158.485
5660673	-161.207
5662721	-159.401
5664769	-133.465
5666817	-155.364
5668865	-155.333
5670913	-158.226
5672961	-165.132
5675009	-159.644
5677057	-151.394
5679105	-160.717
5681153	-154.537
5683201	-169.582
5685249	-144.968
5687297	-148.159
5689345	-165.649
5691393	-164.004
5693441	-156.932
5695489	-173.121
5697537	-162.832
5699585	-173.474
5701633	-165.962
5703681	-168.537
5705729	-154.283
5707777	-156.918
5709825	-151.75
5711873	-151.617
5713921	-166.662
5715969	-157.262
5718017	-163.048
5720065	-172.439
5722113	-172.557
5724161	-163.293
5726209	-177.578
5728257	-166.911
5730305	-155.57
5732353	-162.202
5734401	-174.544
5736449	-164.524
5738497	-168.712
5740545	-172.179
5742593	-163.147
5744641	-153.186
5746689	-172.893
5748737	-157.824
5750785	-165.785
5752833	-164.429
5754881	-192.696
5756929	-182.241
5758977	-169.971
5761025	-159.98
5763073	-159.197
5765121	-181.959
5767169	-179.463
5769217	-164.319
5771265	-171.837
5773313	-174.196
5775361	-180.021
5777409	-159.387
5779457	-186.546
5781505	-167.48
5783553	-154.448
5785601	-182.127
5787649	-188.177
5789697	-161.81
5791745	-167.612
5793793	-162.552
5795841	-168.686
5797889	-147.674
5799937	-151.735
5801985	-152.111
5804033	-166.814
5806081	-173.105
5808129	-177.323
5810177	-155.458
5812225	-150.519
5814273	-168.08
5816321	-154.909
5818369	-145.746
5820417	-162.665
5822465	-158.065
5824513	-174.294
5826561	-168.202
5828609	-153.642
5830657	-167.69
5832705	-162.032
5834753	-157.395
5836801	-160.695
5838849	-159.474
5840897	-158.891
5842945	-170.938
5844993	-155.774
5847041	-160.615
5849089	-144.538
5851137	-172.088
5853185	-141.389
5855233	-161.623
5857281	-149.496
5859329	-170.042
5861377	-155.448
5863425	-161.586
5865473	-164.454
5867521	-156.613
5869569	-174.942
5871617	-161.917
5873665	-156.565
5875713	-154.105
5877761	-156.135
5879809	-162.432
5881857	-154.654
5883905	-180.607
5885953	-164.621
5888001	-152.114
5890049	-160.08
5892097	-154.066
5894145	-148.61
5896193	-166.41
5898241	-144.936
5900289	-154.397
5902337	-159.881
5904385	-156.354
5906433	-148.235
5908481	-166.213
5910529	-157.831
5912577	-153.535
5914625	-169.773
5916673	-158.491
5918721	-176.08
5920769	-172.677
5922817	-165.552
5924865	-163.775
5926913	-164.894
5928961	-172.165
5931009	-158.091
5933057	-161.655
5935105	-135.376
5937153	-178.627
5939201	-169.388
5941249	-150.936
5943297	-174.997
5945345	-170.133
5947393	-163.583
5949441	-170.369
5951489	-190.893
5953537	-161.53
5955585	-150.273
5957633	-147.687
5959681	-182.094
5961729	-156.915
5963777	-156.537
5965825	-145.177
5967873	-163.518
5969921	-153.313
5971969	-151.407
5974017	-163.989
5976065	-150.894
5978113	-167.125
5980161	-153.771
5982209	-163.69
5984257	-160.702
5986305	-164.853
5988353	-165.584
5990401	-177.153
5992449	-156.981
5994497	-145.203
5996545	-158.803
5998593	-174.453
6000641	-144.377
6002689	-150.561
6004737	-155.882
6006785	-150.506
6008833	-144.913
6010881	-155.374
6012929	-146.198
6014977	-162.129
6017025	-163.446
6019073	-150.04
6021121	-151.193
6023169	-145.251
6025217	-156.857
6027265	-164.399
6029313	-168.61
6031361	-158.832
6033409	-166.97
6035457	-162.166
6037505	-161.32
6039553	-154.399
6041601	-139.368
6043649	-145.321
6045697	-161.862
6047745	-150.802
6049793	-167.676
6051841	-160.244
6053889	-165.226
6055937	-157.046
6057985	-174.958
6060033	-161.985
6062081	-167.442
6064129	-155.799
6066177	-147.798
6068225	-156.101
6070273	-157.217
6072321	-166.23
6074369	-176.617
6076417	-160.837
6078465	-144.287
6080513	-153.639
6082561	-164.473
6084609	-175.84
6086657	-172.484
6088705	-160.785
6090753	-160.958
6092801	-161.246
6094849	-173.904
6096897	-165.96
6098945	-160.807
6100993	-158.037
6103041	-177.839
6105089	-159.899
6107137	-153.844
6109185	-164.186
6111233	-173.196
6113281	-143.676
6115329	-164.954
6117377	-175.45
6119425	-146.871
6121473	-149.582
6123521	-156.632
6125569	-157.33
6127617	-154.53
6129665	-158.778
6131713	-146.52
6133761	-161.63
6135809	-155.54
6137857	-160.559
6139905	-163.763
6141953	-172.828
6144001	-168.588
6146049	-161.56
6148097	-154.594
6150145	-164.077
6152193	-163.786
6154241	-173.376
6156289	-174.885
6158337	-165.46
6160385	-153.912
6162433	-156.441
6164481	-163.436
6166529	-159.894
6168577	-155.216
6170625	-149.262
6172673	-162.726
6174721	-167.892
6176769	-170.85
6178817	-192.575
6180865	-188.317
6182913	-192.584
6184961	-166.873
6187009	-177.858
6189057	-149.552
6191105	-156.293
6193153	-167.383
6195201	-159.94
6197249	-153.722
6199297	-163.605
6201345	-157.531
6203393	-171.706
6205441	-154.088
6207489	-152.232
6209537	-167.154
6211585	-147.805
6213633	-145.319
6215681	-161.903
6217729	-169.486
6219777	-158.822
6221825	-170.661
6223873	-169.168
6225921	-153.134
6227969	-151.584
6230017	-162.4
6232065	-161.021
6234113	-164.615
6236161	-179.571
6238209	-168.947
6240257	-169.133
6242305	-170.452
6244353	-155.839
6246401	-144.283
6248449	-152.457
6250497	-166.999
6252545	-152.91
6254593	-162.415
6256641	-169.356
6258689	-151.962
6260737	-173.226
6262785	-183.743
6264833	-160.314
6266881	-171.508
6268929	-157.175
6270977	-172.404
6273025	-174.776
6275073	-168.626
6277121	-172.363
6279169	-173.291
6281217	-179.717
6283265	-179.972
6285313	-159.739
6287361	-147.6
6289409	-168.11
6291457	-158.286
6293505	-177.901
6295553	-152.445
6297601	-154.76
6299649	-166.098
6301697	-161.798
6303745	-161.695
6305793	-153.218
6307841	-147.013
6309889	-146.047
6311937	-139.649
6313985	-146.835
6316033	-157.573
6318081	-159.212
6320129	-152.584
6322177	-166.559
6324225	-171.919
6326273	-171.886
6328321	-161.653
6330369	-175.695
6332417	-159.337
6334465	-179.57
6336513	-176.684
6338561	-166.897
6340609	-151.904
6342657	-149.926
6344705	-147.086
6346753	-139.046
6348801	-149.421
6350849	-153.558
6352897	-155.719
6354945	-159.407
6356993	-152.459
6359041	-141.301
6361089	-153.409
6363137	-169.995
6365185	-157.738
6367233	-156.198
6369281	-154.881
6371329	-161.319
6373377	-162.162
6375425	-158.748
6377473	-167.767
6379521	-164.683
6381569	-145.33
6383617	-150.197
6385665	-165.847
6387713	-166.507
6389761	-150.94
6391809	-176.992
6393857	-164.993
6395905	-168.072
6397953	-155.154
6400001	-160.126
6402049	-148.836
6404097	-148.908
6406145	-154.958
6408193	-158.071
6410241	-161.042
6412289	-158.907
6414337	-157.225
6416385	-155.84
6418433	-138.63
6420481	-146.306
6422529	-163.951
6424577	-171.265
6426625	-157.881
6428673	-173.119
6430721	-173.884
6432769	-147.158
6434817	-166.401
6436865	-164.168
6438913	-154.298
6440961	-171.147
6443009	-166.703
6445057	-166.478
6447105	-171.436
6449153	-152.328
6451201	-141.257
6453249	-140.94
6455297	-163.542
6457345	-152.99
6459393	-158.762
6461441	-164.072
6463489	-155.78
6465537	-159.499
6467585	-159.772
6469633	-147.602
6471681	-167.268
6473729	-172.473
6475777	-159.828
6477825	-184.811
6479873	-177.112
6481921	-173.872
6483969	-181.415
6486017	-168.565
6488065	-166.931
6490113	-161.086
6492161	-150.858
6494209	-158.255
6496257	-158.29
6498305	-152.612
6500353	-156.964
6502401	-165.983
6504449	-166.342
6506497	-168.696
6508545	-166.67
6510593	-169.315
6512641	-157.785
6514689	-163.333
6516737	-163.023
6518785	-154.443
6520833	-155.591
6522881	-160.487
6524929	-156.999
6526977	-147.641
6529025	-147.444
6531073	-147.86
6533121	-153.625
6535169	-150.977
6537217	-158.85
6539265	-163.251
6541313	-169.962
6543361	-173.086
6545409	-167.565
6547457	-164.143
6549505	-159.074
6551553	-148.724
6553601	-175.942
6555649	-170.551
6557697	-170.41
6559745	-164.959
6561793	-159.195
6563841	-156.824
6565889	-158.804
6567937	-169.394
6569985	-155.86
6572033	-169.19
6574081	-181.186
6576129	-153.095
6578177	-152.365
6580225	-159.228
6582273	-156.647
6584321	-151.652
6586369	-168.962
6588417	-169.046
6590465	-159.13
6592513	-144.394
6594561	-171.102
6596609	-158.268
6598657	-142.007
6600705	-151.529
6602753	-175.849
6604801	-174.474
6606849	-168.478
6608897	-156.072
6610945	-141.516
6612993	-152.725
6615041	-163.003
6617089	-143.921
6619137	-142.83
6621185	-141.462
6623233	-157.906
6625281	-176.774
6627329	-152.336
6629377	-139.95
6631425	-154.715
6633473	-184.16
6635521	-164.291
6637569	-149.334
6639617	-153.057
6641665	-158.858
6643713	-152.071
6645761	-154.727
6647809	-165.941
6649857	-174.925
6651905	-167.566
6653953	-156.574
6656001	-167.606
6658049	-154.237
6660097	-163.13
6662145	-179.272
6664193	-188.984
6666241	-172.758
6668289	-160.475
6670337	-163.698
6672385	-147.664
6674433	-143.37
6676481	-159.053
6678529	-160.643
6680577	-175.833
6682625	-176.772
6684673	-165.174
6686721	-144.638
6688769	-155.64
6690817	-151.903
6692865	-160.187
6694913	-157.381
6696961	-174.648
6699009	-160.32
6701057	-176.319
6703105	-150.516
6705153	-159.465
6707201	-173.626
6709249	-167.633
6711297	-162.84
6713345	-170.488
6715393	-163.865
6717441	-162.883
6719489	-166.643
6721537	-154.214
6723585	-168.833
6725633	-160.67
6727681	-159.859
6729729	-154.069
6731777	-158.286
6733825	-160.447
6735873	-150.613
6737921	-160.163
6739969	-186.748
6742017	-169.306
6744065	-159.111
6746113	-169.868
6748161	-183.477
6750209	-156.414
6752257	-161.034
6754305	-154.755
6756353	-161.167
6758401	-169.347
6760449	-159.389
6762497	-176.463
6764545	-153.716
6766593	-151.626
6768641	-161.595
6770689	-166.235
6772737	-160.665
6774785	-168.815
6776833	-155.453
6778881	-167.954
6780929	-160.759
6782977	-175.733
6785025	-157.642
6787073	-156.515
6789121	-151.95
6791169	-169.071
6793217	-174.205
6795265	-186.498
6797313	-164.368
6799361	-167.463
6801409	-144.843
6803457	-149.618
6805505	-145.955
6807553	-157
6809601	-163.843
6811649	-168.259
6813697	-155.754
6815745	-164.752
6817793	-163.582
6819841	-152.55
6821889	-157.235
6823937	-144.625
6825985	-183.322
6828033	-185.201
6830081	-178.446
6832129	-141.816
6834177	-168.899
6836225	-174.587
6838273	-139.824
6840321	-163.336
6842369	-160.008
6844417	-174.896
6846465	-176.149
6848513	-154.655
6850561	-151.644
6852609	-164.775
6854657	-162.08
6856705	-170.813
6858753	-162.089
6860801	-151.55
6862849	-162.042
6864897	-159.243
6866945	-154.358
6868993	-175.876
6871041	-148.193
6873089	-157.883
6875137	-145.905
6877185	-145.942
6879233	-160.892
6881281	-156.109
6883329	-174.445
6885377	-170.615
6887425	-165.849
6889473	-147.826
6891521	-164.691
6893569	-181.615
6895617	-166.754
6897665	-145.476
6899713	-163.982
6901761	-152.391
6903809	-154.917
6905857	-158.648
6907905	-156.005
6909953	-158.304
6912001	-154.888
6914049	-149.504
6916097	-163.861
6918145	-164.695
6920193	-142.609
6922241	-162.625
6924289	-167.401
6926337	-160.046
6928385	-161.545
6930433	-177.227
6932481	-171.68
6934529	-161.22
6936577	-164.897
6938625	-153.591
6940673	-169.278
6942721	-164.306
6944769	-158.476
6946817	-153.104
6948865	-164.435
6950913	-172.343
6952961	-162.375
6955009	-167.489
6957057	-148.897
6959105	-157.606
6961153	-160.941
6963201	-151.106
6965249	-145.712
6967297	-156.811
6969345	-183.429
6971393	-157.46
6973441	-160.296
6975489	-143.089
6977537	-146.78
6979585	-151.324
6981633	-158.469
6983681	-165.705
6985729	-168.765
6987777	-155.373
6989825	-172.751
6991873	-165.573
6993921	-168.02
6995969	-151.155
6998017	-153.824
7000065	-145.941
7002113	-160.738
7004161	-168.16
7006209	-153.934
7008257	-162.879
7010305	-164.311
7012353	-165.649
7014401	-170.567
7016449	-163.653
7018497	-150.164
7020545	-169.893
7022593	-180.399
7024641	-167.826
7026689	-171.434
7028737	-163.514
7030785	-154.329
7032833	-152.457
7034881	-158.03
7036929	-163.459
7038977	-151.033
7041025	-149.08
7043073	-152.428
7045121	-159.783
7047169	-180.77
7049217	-187.505
7051265	-181.588
7053313	-170.054
7055361	-172.722
7057409	-162.311
7059457	-148.063
7061505	-151.954
7063553	-164.56
7065601	-158.027
7067649	-149.325
7069697	-155.144
7071745	-182.414
7073793	-163.056
7075841	-151.925
7077889	-162.928
7079937	-158.031
7081985	-151.958
7084033	-162.856
7086081	-155.508
7088129	-142.247
7090177	-150.587
7092225	-159.835
7094273	-156.581
7096321	-179.669
7098369	-138.195
7100417	-146.604
7102465	-153.54
7104513	-148.319
7106561	-164.663
7108609	-168.179
7110657	-168.142
7112705	-149.584
7114753	-175.124
7116801	-148.164
7118849	-149.923
7120897	-154.72
7122945	-166.316
7124993	-148.939
7127041	-155.926
7129089	-185.42
7131137	-170.284
7133185	-173.37
7135233	-162.253
7137281	-159.344
7139329	-162.357
7141377	-148.559
7143425	-156.191
7145473	-148.193
7147521	-155.156
7149569	-159.001
7151617	-144.049
7153665	-155.155
7155713	-167.449
7157761	-153.645
7159809	-159.136
7161857	-155.732
7163905	-157.945
7165953	-146.776
7168001	-173.454
7170049	-169.006
7172097	-165.594
7174145	-158.958
7176193	-147.451
7178241	-140.586
7180289	-161.537
7182337	-175.95
7184385	-158.548
7186433	-149.77
7188481	-155.986
7190529	-139.586
7192577	-162.602
7194625	-153.865
7196673	-155.913
7198721	-154.208
7200769	-161.895
7202817	-158.694
7204865	-147.711
7206913	-157.043
7208961	-151.334
7211009	-161.478
7213057	-163.756
7215105	-152.866
7217153	-142.463
7219201	-161.918
7221249	-156.736
7223297	-148.079
7225345	-147.98
7227393	-158.288
7229441	-164.911
7231489	-154.761
7233537	-150.986
7235585	-163.353
7237633	-157.273
7239681	-168.796
7241729	-148.198
7243777	-159.968
7245825	-158.848
7247873	-153.069
7249921	-145.067
7251969	-154.682
7254017	-171.561
7256065	-156.911
7258113	-180.995
7260161	-173.098
7262209	-182.824
7264257	-158.896
7266305	-158.87
7268353	-166.287
7270401	-162.807
7272449	-177.679
7274497	-171.82
7276545	-177.735
7278593	-170.549
7280641	-144.638
7282689	-148.576
7284737	-156.776
7286785	-160.477
7288833	-175.312
7290881	-163.227
7292929	-170.584
7294977	-159.522
7297025	-159.155
7299073	-163.794
7301121	-172.084
7303169	-161.56
7305217	-177.892
7307265	-187.932
7309313	-156.367
7311361	-163.593
7313409	-154.421
7315457	-152.417
7317505	-165.938
7319553	-158.978
7321601	-152.544
7323649	-155.341
7325697	-157.966
7327745	-149.349
7329793	-167.621
7331841	-154.57
7333889	-159.104
7335937	-172.663
7337985	-162.505
7340033	-175.074
7342081	-193.832
7344129	-176.322
7346177	-151.66
7348225	-166.902
7350273	-155.298
7352321	-147.935
7354369	-169.852
7356417	-164.91
7358465	-168.265
7360513	-172.11
7362561	-161.51
7364609	-155.33
7366657	-148.622
7368705	-159.304
7370753	-166.973
7372801	-162.551
7374849	-170.582
7376897	-138.884
7378945	-154.464
7380993	-166.306
7383041	-154.144
7385089	-159.762
7387137	-155.016
7389185	-146.964
7391233	-166.332
7393281	-157.11
7395329	-157.398
7397377	-162.151
7399425	-148.185
7401473	-154.011
7403521	-148.832
7405569	-154.81
7407617	-152.307
7409665	-150.331
7411713	-184.902
7413761	-151.622
7415809	-156.462
7417857	-167.031
7419905	-152.607
7421953	-167.436
7424001	-150.105
7426049	-158.177
7428097	-148.186
7430145	-156.813
7432193	-174.078
7434241	-167.195
7436289	-169.925
7438337	-159.33
7440385	-170.024
7442433	-188.357
7444481	-189.651
7446529	-166.423
7448577	-173.132
7450625	-158.477
7452673	-166.533
7454721	-156.624
7456769	-146.138
7458817	-158.434
7460865	-154.532
7462913	-153.862
7464961	-169.896
7467009	-159.851
7469057	-172.003
7471105	-154.371
7473153	-159.401
7475201	-167.981
7477249	-153.144
7479297	-176.607
7481345	-148.54
7483393	-146.241
7485441	-149.963
7487489	-160.911
7489537	-166.786
7491585	-161.782
7493633	-167.992
7495681	-159.808
7497729	-155.95
7499777	-163.056
7501825	-157.432
7503873	-158.824
7505921	-167.443
7507969	-170.249
7510017	-171.187
7512065	-186.068
7514113	-194.694
7516161	-184.956
7518209	-184.158
7520257	-170.282
7522305	-178.719
7524353	-166.33
7526401	-172.206
7528449	-170.233
7530497	-172.778
7532545	-175.784
7534593	-174.165
7536641	-160.907
7538689	-152.235
7540737	-179.033
7542785	-157.472
7544833	-166.586
7546881	-176.679
7548929	-165.725
7550977	-168.458
7553025	-166.052
7555073	-175.488
7557121	-169.31
7559169	-151.88
7561217	-155.821
7563265	-162.119
7565313	-158.839
7567361	-162.248
7569409	-160.395
7571457	-155.651
7573505	-151.107
7575553	-160.365
7577601	-157.548
7579649	-147.181
7581697	-158.415
7583745	-166.029
7585793	-158.625
7587841	-168.301
7589889	-165.578
7591937	-163.914
7593985	-143.413
7596033	-154.454
7598081	-149.533
7600129	-147.628
7602177	-159.463
7604225	-159.169
7606273	-149.214
7608321	-160.56
7610369	-149.892
7612417	-166.4
7614465	-161.924
7616513	-156.94
7618561	-174.143
7620609	-186.986
7622657	-143.027
7624705	-153.09
7626753	-133.228
7628801	-142.338
7630849	-145.113
7632897	-151.503
7634945	-149.788
7636993	-167.108
7639041	-151.924
7641089	-163.692
7643137	-169.45
7645185	-170.788
7647233	-170.166
7649281	-168.883
7651329	-145.093
7653377	-166.555
7655425	-147.505
7657473	-165.466
7659521	-159.103
7661569	-146.079
7663617	-152.075
7665665	-170.252
7667713	-174.874
7669761	-145.727
7671809	-156.263
7673857	-161.386
7675905	-162.644
7677953	-152.721
7680001	-133.685
7682049	-146.214
7684097	-147.102
7686145	-167.72
7688193	-163.485
7690241	-150.98
7692289	-150.141
7694337	-147.309
7696385	-146.703
7698433	-160.557
7700481	-168.21
7702529	-168.358
7704577	-165.317
7706625	-164.68
7708673	-163.186
7710721	-170.678
7712769	-145.348
7714817	-161.467
7716865	-164.085
7718913	-170.095
7720961	-172.191
7723009	-152.085
7725057	-161.746
7727105	-164.255
7729153	-149.676
7731201	-163.571
7733249	-158.11
7735297	-150.699
7737345	-173.461
7739393	-180.859
7741441	-167.252
7743489	-155.203
7745537	-162.528
7747585	-165.036
7749633	-166.216
7751681	-160.759
7753729	-170.571
7755777	-166.284
7757825	-169.547
7759873	-159.794
7761921	-174.076
7763969	-140.561
7766017	-169.462
7768065	-168.946
7770113	-178.832
7772161	-174.998
7774209	-171.623
7776257	-158.836
7778305	-154.911
7780353	-146.473
7782401	-154.854
7784449	-150.405
7786497	-143.799
7788545	-157.796
7790593	-175.947
7792641	-164.304
7794689	-174.49
7796737	-162.527
7798785	-148.086
7800833	-147.739
7802881	-163.014
7804929	-153.368
7806977	-162.314
7809025	-165.65
7811073	-151.927
7813121	-170.158
7815169	-148.746
7817217	-161.833
7819265	-157.054
7821313	-152.571
7823361	-165.738
7825409	-170.675
7827457	-165.789
7829505	-171.954
7831553	-158.182
7833601	-153.831
7835649	-158.471
7837697	-172.92
7839745	-178.198
7841793	-172.012
7843841	-147.372
7845889	-165.055
7847937	-153.684
7849985	-159.998
7852033	-167.648
7854081	-177.762
7856129	-162.518
7858177	-138.422
7860225	-155.567
7862273	-147.848
7864321	-158.308
7866369	-165.8
7868417	-165.496
7870465	-151.694
7872513	-156.8
7874561	-147.614
7876609	-160.37
7878657	-141.227
7880705	-153.028
7882753	-167.251
7884801	-158.798
7886849	-169.944
7888897	-165.487
7890945	-167.778
7892993	-156.437
7895041	-178.299
7897089	-165.586
7899137	-165.022
7901185	-159.609
7903233	-165.232
7905281	-186.594
7907329	-171.555
7909377	-166.527
7911425	-166.696
7913473	-174.595
7915521	-157.657
7917569	-162.397
7919617	-187.693
7921665	-162.891
7923713	-155.568
7925761	-160.753
7927809	-159.121
7929857	-175.999
7931905	-165.49
7933953	-155.741
7936001	-164.44
7938049	-158.932
7940097	-159.487
7942145	-158.671
7944193	-141.698
7946241	-146.784
7948289	-160.267
7950337	-151.644
7952385	-164.469
7954433	-148.075
7956481	-159.469
7958529	-148.133
7960577	-166.5
7962625	-153.476
7964673	-165.1
7966721	-157.387
7968769	-158.269
7970817	-157.31
7972865	-147.469
7974913	-158.908
7976961	-156.488
7979009	-138.657
7981057	-162.626
7983105	-156.714
7985153	-153.93
7987201	-152.119
7989249	-159.146
7991297	-147.223
7993345	-157.541
7995393	-159.958
7997441	-169.802
7999489	-185.126
8001537	-171.376
8003585	-164.443
8005633	-171.569
8007681	-154.257
8009729	-151.577
8011777	-166.806
8013825	-167.658
8015873	-165.948
8017921	-188.139
8019969	-178.691
8022017	-183.417
8024065	-165.725
8026113	-160.25
8028161	-167.828
8030209	-168.641
8032257	-146.502
8034305	-156.373
8036353	-149.672
8038401	-161.565
8040449	-151.018
8042497	-154.89
8044545	-164.032
8046593	-151.955
8048641	-165.651
8050689	-158.482
8052737	-146.339
8054785	-159.446
8056833	-160.129
8058881	-170.565
8060929	-174.132
8062977	-150.18
8065025	-154.119
8067073	-161.159
8069121	-157.787
8071169	-158.839
8073217	-166.384
8075265	-163.162
8077313	-180.354
8079361	-163.564
8081409	-170.83
8083457	-148.282
8085505	-162.285
8087553	-159.114
8089601	-167.66
8091649	-155.441
8093697	-164.083
8095745	-158.44
8097793	-169.099
8099841	-148.184
8101889	-169.532
8103937	-156.612
8105985	-158.582
8108033	-155.813
8110081	-152.944
8112129	-166.685
8114177	-152.01
8116225	-165.972
8118273	-152.215
8120321	-150.436
8122369	-154.809
8124417	-162.727
8126465	-166.285
8128513	-153.517
8130561	-167.319
8132609	-173.385
8134657	-175.523
8136705	-163.705
8138753	-164.883
8140801	-150.995
8142849	-154.544
8144897	-153.12
8146945	-163.844
8148993	-162.608
8151041	-155.203
8153089	-149.487
8155137	-163.5
8157185	-159.35
8159233	-171.783
8161281	-162.883
8163329	-167.482
8165377	-175.982
8167425	-173.181
8169473	-172.431
8171521	-174.154
8173569	-156.76
8175617	-161.583
8177665	-155.669
8179713	-152.777
8181761	-158.478
8183809	-181.545
8185857	-188.019
8187905	-176.049
8189953	-173.47
8192001	-170.43
8194049	-167.124
8196097	-165.99
8198145	-166.572
8200193	-171.744
8202241	-152.37
8204289	-172.017
8206337	-163.232
8208385	-146.115
8210433	-156.732
8212481	-153.902
8214529	-156.592
8216577	-158.347
8218625	-165.057
8220673	-171.49
8222721	-165.098
8224769	-155.104
8226817	-167.401
8228865	-174.513
8230913	-163.439
8232961	-158.379
8235009	-157.095
8237057	-172.251
8239105	-167.553
8241153	-159.875
8243201	-150.606
8245249	-159.601
8247297	-154.414
8249345	-149.139
8251393	-164.482
8253441	-162.858
8255489	-148.783
8257537	-159.665
8259585	-164.161
8261633	-163.679
8263681	-176.068
8265729	-178.945
8267777	-170.499
8269825	-185.883
8271873	-175.804
8273921	-172.378
8275969	-160.873
8278017	-152.887
8280065	-162.085
8282113	-187.538
8284161	-164.007
8286209	-147.558
8288257	-178.673
8290305	-179.421
8292353	-163.702
8294401	-171.001
8296449	-173.749
8298497	-175.191
8300545	-175.39
8302593	-163.029
8304641	-164.754
8306689	-151.38
8308737	-156.31
8310785	-150.843
8312833	-176.335
8314881	-152.999
8316929	-156.492
8318977	-160.703
8321025	-152.796
8323073	-164.07
8325121	-174.494
8327169	-157.95
8329217	-170.518
8331265	-147.393
8333313	-154.174
8335361	-151.599
8337409	-156.102
8339457	-155.016
8341505	-153.44
8343553	-159.167
8345601	-161.533
8347649	-149.021
8349697	-148.275
8351745	-156.997
8353793	-165.372
8355841	-166.299
8357889	-169.518
8359937	-170.229
8361985	-169.8
8364033	-176.139
8366081	-179.363
8368129	-188.417
8370177	-182.593
8372225	-176.321
8374273	-169.606
8376321	-145.155
8378369	-150.188
8380417	-135.358
8382465	-148.207
8384513	-152.86
8386561	-151.154
8388609	-156.243
8390657	-173.131
8392705	-170.544
8394753	-160.188
8396801	-156.297
8398849	-169.47
8400897	-157.52
8402945	-169.364
8404993	-155.963
8407041	-165.111
8409089	-172.781
8411137	-166.433
8413185	-155.388
8415233	-167.708
8417281	-173.754
8419329	-170.303
8421377	-176.351
8423425	-159.134
8425473	-181.772
8427521	-174.778
8429569	-177.249
8431617	-164.461
8433665	-156.138
8435713	-151.726
8437761	-163.226
8439809	-158.358
8441857	-148.013
8443905	-151.601
8445953	-149.25
8448001	-148.989
8450049	-146.483
8452097	-143.274
8454145	-156.904
8456193	-155.847
8458241	-178.222
8460289	-157.34
8462337	-171.111
8464385	-166.832
8466433	-162.462
8468481	-162.872
8470529	-159.285
8472577	-195.59
8474625	-160.991
8476673	-167.111
8478721	-150.598
8480769	-159.202
8482817	-170.354
8484865	-162.925
8486913	-160.263
8488961	-154.755
8491009	-168.33
8493057	-162.328
8495105	-176.144
8497153	-174.878
8499201	-173.57
8501249	-149.61
8503297	-165.238
8505345	-175.227
8507393	-155.447
8509441	-167.346
8511489	-170.034
8513537	-165.178
8515585	-160.844
8517633	-158.575
8519681	-144.436
8521729	-159.921
8523777	-167.554
8525825	-159.624
8527873	-175.174
8529921	-156.549
8531969	-155.353
8534017	-156.988
8536065	-148.066
8538113	-165.832
8540161	-169.473
8542209	-162.01
8544257	-175.683
8546305	-160.064
8548353	-146.27
8550401	-158.576
8552449	-158.342
8554497	-160.443
8556545	-181.288
8558593	-163.419
8560641	-164.241
8562689	-152.484
8564737	-155.713
8566785	-146.695
8568833	-175.408
8570881	-178.951
8572929	-146.6
8574977	-150.64
8577025	-157.491
8579073	-167.141
8581121	-166.685
8583169	-158.098
8585217	-161.57
8587265	-158.599
8589313	-162.436
8591361	-165.53
8593409	-169.544
8595457	-164.526
8597505	-174.963
8599553	-166.628
8601601	-161.318
8603649	-176.127
8605697	-164.668
8607745	-155.824
8609793	-160.563
8611841	-147.508
8613889	-146.33
8615937	-167.071
8617985	-159.82
8620033	-161.411
8622081	-145.715
8624129	-143.905
8626177	-165.403
8628225	-154.66
8630273	-179.714
8632321	-150.685
8634369	-148.05
8636417	-161.127
8638465	-154.499
8640513	-153.785
8642561	-151.958
8644609	-160.766
8646657	-154.415
8648705	-154.016
8650753	-171.072
8652801	-153.603
8654849	-167.671
8656897	-148.049
8658945	-166.755
8660993	-156.819
8663041	-157.597
8665089	-148.891
8667137	-156.518
8669185	-154.071
8671233	-147.31
8673281	-173.021
8675329	-167.745
8677377	-157.578
8679425	-153.869
8681473	-165.565
8683521	-162.597
8685569	-167.711
8687617	-161.462
8689665	-161.636
8691713	-165.679
8693761	-149.376
8695809	-154.076
8697857	-170.006
8699905	-166.816
8701953	-163.111
8704001	-161.245
8706049	-161.927
8708097	-161.78
8710145	-166.841
8712193	-179.905
8714241	-154.125
8716289	-141.778
8718337	-163.639
8720385	-153.194
8722433	-160.561
8724481	-159.442
8726529	-165.405
8728577	-161.264
8730625	-163.623
8732673	-159.754
8734721	-142.099
8736769	-165.235
8738817	-160.63
8740865	-144.824
8742913	-161.405
8744961	-163.384
8747009	-177.774
8749057	-150.362
8751105	-149.493
8753153	-147.404
8755201	-147.703
8757249	-151.567
8759297	-144.314
8761345	-142.172
8763393	-160.434
8765441	-161.895
8767489	-174.167
8769537	-160.317
8771585	-172.251
8773633	-152.411
8775681	-156.837
8777729	-148.778
8779777	-152.62
8781825	-149.393
8783873	-157.876
8785921	-163.38
8787969	-168.383
8790017	-159.795
8792065	-171.148
8794113	-174.034
8796161	-164.174
8798209	-169.845
8800257	-173.969
8802305	-176.111
8804353	-166.894
8806401	-173.754
8808449	-157.158
8810497	-169.131
8812545	-174.348
8814593	-153.634
8816641	-155.177
8818689	-162.649
8820737	-161.986
8822785	-155.195
8824833	-156.489
8826881	-155.779
8828929	-142.947
8830977	-143.651
8833025	-151.391
8835073	-150.751
8837121	-149.251
8839169	-145.183
8841217	-167.178
8843265	-176.951
8845313	-185.669
8847361	-162.352
8849409	-169.681
8851457	-155.844
8853505	-137.282
8855553	-159.76
8857601	-174.062
8859649	-187.464
8861697	-174.73
8863745	-166.635
8865793	-175.526
8867841	-163.176
8869889	-170.367
8871937	-160.834
8873985	-192.905
8876033	-161.105
8878081	-169.631
8880129	-169.121
8882177	-174.865
8884225	-187.109
8886273	-158.568
8888321	-139.947
8890369	-163.784
8892417	-178.081
8894465	-160.812
8896513	-145.682
8898561	-146.999
8900609	-149.126
8902657	-153.253
8904705	-161.865
8906753	-164.755
8908801	-170.406
8910849	-174.761
8912897	-165.696
8914945	-166.701
8916993	-161.545
8919041	-184.12
8921089	-169.897
8923137	-163.418
8925185	-152.364
8927233	-160.464
8929281	-158.733
8931329	-151.482
8933377	-163.314
8935425	-161.124
8937473	-156.861
8939521	-151.514
8941569	-171.327
8943617	-166.488
8945665	-172.764
8947713	-176.291
8949761	-155.354
8951809	-163.05
8953857	-146.769
8955905	-146.18
8957953	-162.34
8960001	-149.269
8962049	-172.296
8964097	-160.79
8966145	-162.534
8968193	-173.921
8970241	-155.517
8972289	-147.358
8974337	-149.94
8976385	-151.894
8978433	-141.39
8980481	-167.447
8982529	-174.522
8984577	-163.565
8986625	-156.262
8988673	-149.851
8990721	-147.22
8992769	-148.615
8994817	-151.787
8996865	-149.448
8998913	-155.917
9000961	-151.468
9003009	-148.983
9005057	-163.269
9007105	-155.468
9009153	-167.738
9011201	-159.381
9013249	-163.983
9015297	-168.267
9017345	-168.175
9019393	-175.492
9021441	-178.246
9023489	-177.081
9025537	-183.877
9027585	-157.684
9029633	-156.167
9031681	-148.152
9033729	-159.266
9035777	-156.004
9037825	-154.562
9039873	-157.566
9041921	-165.02
9043969	-136.377
9046017	-159.998
9048065	-154.894
9050113	-168.4
9052161	-153.283
9054209	-161.116
9056257	-164.124
9058305	-162.329
9060353	-152.237
9062401	-154.052
9064449	-160.405
9066497	-165.666
9068545	-170.623
9070593	-161.003
9072641	-149.453
9074689	-141.059
9076737	-152.665
9078785	-164.229
9080833	-158.726
9082881	-165.287
9084929	-149.184
9086977	-155.159
9089025	-161.934
9091073	-165.617
9093121	-167.567
9095169	-157.096
9097217	-158.2
9099265	-152.401
9101313	-178.331
9103361	-177.661
9105409	-171.079
9107457	-173.017
9109505	-174.686
9111553	-169.879
9113601	-159.35
9115649	-164.608
9117697	-161.339
9119745	-186.461
9121793	-170.768
9123841	-177.817
9125889	-160.925
9127937	-155.01
9129985	-164.998
9132033	-175.453
9134081	-174.721
9136129	-173.292
9138177	-173.538
9140225	-156.357
9142273	-155.712
9144321	-158.218
9146369	-173.621
9148417	-166.738
9150465	-157.022
9152513	-164.583
9154561	-151.39
9156609	-171.022
9158657	-158.343
9160705	-152.464
9162753	-169.613
9164801	-171.971
9166849	-170.156
9168897	-168.962
9170945	-183.629
9172993	-169.518
9175041	-155.874
9177089	-166.105
9179137	-179.087
9181185	-160.279
9183233	-158.995
9185281	-171.247
9187329	-158.567
9189377	-154.21
9191425	-150.787
9193473	-171.082
9195521	-160.329
9197569	-162.487
9199617	-174.2
9201665	-164.983
9203713	-158.917
9205761	-174.135
9207809	-172.85
9209857	-178.74
9211905	-184.948
9213953	-176.959
9216001	-163.422
9218049	-172.404
9220097	-181.424
9222145	-161.456
9224193	-163.946
9226241	-140.007
9228289	-171.815
9230337	-176.061
9232385	-175.923
9234433	-176.588
9236481	-169.794
9238529	-169.796
9240577	-182.976
9242625	-161.165
9244673	-157.262
9246721	-145.023
9248769	-169.356
9250817	-170.199
9252865	-181.512
9254913	-180.396
9256961	-163.132
9259009	-148.198
9261057	-158.544
9263105	-165.075
9265153	-154.276
9267201	-169.934
9269249	-168.788
9271297	-181.489
9273345	-175.971
9275393	-177.639
9277441	-175.169
9279489	-174.846
9281537	-166.313
9283585	-151.783
9285633	-153.373
9287681	-140.991
9289729	-156.532
9291777	-158.868
9293825	-150.953
9295873	-167.268
9297921	-180.719
9299969	-169.002
9302017	-167.782
9304065	-155.125
9306113	-153.552
9308161	-167.305
9310209	-153.081
9312257	-161.378
9314305	-158.277
9316353	-162.387
9318401	-162.747
9320449	-175.679
9322497	-173.054
9324545	-171.096
9326593	-152.04
9328641	-166.085
9330689	-144.755
9332737	-168.858
9334785	-150.384
9336833	-167.139
9338881	-162.018
9340929	-171.177
9342977	-170.091
9345025	-160.305
9347073	-177.953
9349121	-178.175
9351169	-162.753
9353217	-169.847
9355265	-144.946
9357313	-164.979
9359361	-169.792
9361409	-158.385
9363457	-171.223
9365505	-157.293
9367553	-152.297
9369601	-164.7
9371649	-167.204
9373697	-163.739
9375745	-152.021
9377793	-159.987
9379841	-158.463
9381889	-163.861
9383937	-168.624
9385985	-168.652
9388033	-172.019
9390081	-159.263
9392129	-181.965
9394177	-187.293
9396225	-168.857
9398273	-172.29
9400321	-164.981
9402369	-167.646
9404417	-145.652
9406465	-154.829
9408513	-165.382
9410561	-149.883
9412609	-157.591
9414657	-188.023
9416705	-149.043
9418753	-174.088
9420801	-165.332
9422849	-188.269
9424897	-155.836
9426945	-156.441
9428993	-165.831
9431041	-152.596
9433089	-135.757
9435137	-164.315
9437185	-157.184
9439233	-144.483
9441281	-151.754
9443329	-151.909
9445377	-160.975
9447425	-149.583
9449473	-149.699
9451521	-160.462
9453569	-148.43
9455617	-162.896
9457665	-167.537
9459713	-151.714
9461761	-161.578
9463809	-156.331
9465857	-166.394
9467905	-151.694
9469953	-141.769
9472001	-158.325
9474049	-147.55
9476097	-154.728
9478145	-158.342
9480193	-154.601
9482241	-160.775
9484289	-198.517
9486337	-183.778
9488385	-171.28
9490433	-172.106
9492481	-162.51
9494529	-165.948
9496577	-153.832
9498625	-138.421
9500673	-152.515
9502721	-150.715
9504769	-153.372
9506817	-166.822
9508865	-158.364
9510913	-151.861
9512961	-148.487
9515009	-179.337
9517057	-173.687
9519105	-159.815
9521153	-159.766
9523201	-169.174
9525249	-155.305
9527297	-167.94
9529345	-163.753
9531393	-158.678
9533441	-157.712
9535489	-165.072
9537537	-166.873
9539585	-158.464
9541633	-165.219
9543681	-152.044
9545729	-156.422
9547777	-173.477
9549825	-181.233
9551873	-160.418
9553921	-163.18
9555969	-146.251
9558017	-154.037
9560065	-156.758
9562113	-154.828
9564161	-159.721
9566209	-173.688
9568257	-155.175
9570305	-144.547
9572353	-164.06
9574401	-155.329
9576449	-155.061
9578497	-153.887
9580545	-189.038
9582593	-178.969
9584641	-171.818
9586689	-169.016
9588737	-187.608
9590785	-149.783
9592833	-153.066
9594881	-152.538
9596929	-171.277
9598977	-154.417
9601025	-150.413
9603073	-161.966
9605121	-156.131
9607169	-159.735
9609217	-162.744
9611265	-161.201
9613313	-167.754
9615361	-156.814
9617409	-167.584
9619457	-169.851
9621505	-158.213
9623553	-170.504
9625601	-177.873
9627649	-154.053
9629697	-151.954
9631745	-142.427
9633793	-159.871
9635841	-158.93
9637889	-160.762
9639937	-163.529
9641985	-160.248
9644033	-161.959
9646081	-159.521
9648129	-155.394
9650177	-162.148
9652225	-179.963
9654273	-179.312
9656321	-177.968
9658369	-193.124
9660417	-192.049
9662465	-165.087
9664513	-145.551
9666561	-163.627
9668609	-141.741
9670657	-134.938
9672705	-160.324
9674753	-143.323
9676801	-150.86
9678849	-146.607
9680897	-169.574
9682945	-171.283
9684993	-166.448
9687041	-154.723
9689089	-168.857
9691137	-164.555
9693185	-168.747
9695233	-173.019
9697281	-161.441
9699329	-144.113
9701377	-157.977
9703425	-159.887
9705473	-172.45
9707521	-165.85
9709569	-170.589
9711617	-154.643
9713665	-162.604
9715713	-181.829
9717761	-163.52
9719809	-157.892
9721857	-150.299
9723905	-160.129
9725953	-162.631
9728001	-170.085
9730049	-168.973
9732097	-139.703
9734145	-159.194
9736193	-143.235
9738241	-158.14
9740289	-141.878
9742337	-169.545
9744385	-179.053
9746433	-171.534
9748481	-151.384
9750529	-165.779
9752577	-150.973
9754625	-146.083
9756673	-163.304
9758721	-156.588
9760769	-153.763
9762817	-166.003
9764865	-164.286
9766913	-161.912
9768961	-162.224
9771009	-157.663
9773057	-157.851
9775105	-150.123
9777153	-152.118
9779201	-168.773
9781249	-167.646
9783297	-179.161
9785345	-180.757
9787393	-159.38
9789441	-165.97
9791489	-164.966
9793537	-155.71
9795585	-174.118
9797633	-142.357
9799681	-160.157
9801729	-153.905
9803777	-160.542
9805825	-155.834
9807873	-173.206
9809921	-158.537
9811969	-142.797
9814017	-163.251
9816065	-147.689
9818113	-176.587
9820161	-187.086
9822209	-180.085
9824257	-180.495
9826305	-179.417
9828353	-158.79
9830401	-165.475
9832449	-155.455
9834497	-158.617
9836545	-170.245
9838593	-169.744
9840641	-174.129
9842689	-153.753
9844737	-162.784
9846785	-159.706
9848833	-164.874
9850881	-176.411
9852929	-171.376
9854977	-186.974
9857025	-177.959
9859073	-187.154
9861121	-174.714
9863169	-156.677
9865217	-156.043
9867265	-156.454
9869313	-158.224
9871361	-162.416
9873409	-181.563
9875457	-156.159
9877505	-137.468
9879553	-167.616
9881601	-153.595
9883649	-170.066
9885697	-162.797
9887745	-170.083
9889793	-156.89
9891841	-158.876
9893889	-160.55
9895937	-172.782
9897985	-167.992
9900033	-167.156
9902081	-170.347
9904129	-154.677
9906177	-149.473
9908225	-144.298
9910273	-174.122
9912321	-189.621
9914369	-173.245
9916417	-170.323
9918465	-154.608
9920513	-151.197
9922561	-141.861
9924609	-169.74
9926657	-171.606
9928705	-162.157
9930753	-179.042
9932801	-160.486
9934849	-161.08
9936897	-156.694
9938945	-135.734
9940993	-153.662
9943041	-154.261
9945089	-149.602
9947137	-150.015
9949185	-157.626
9951233	-163.337
9953281	-138.44
9955329	-157.087
9957377	-150.605
9959425	-159.681
9961473	-157.022
9963521	-168.768
9965569	-165.295
9967617	-159.908
9969665	-149.958
9971713	-153.952
9973761	-174.138
9975809	-164.902
9977857	-163.438
9979905	-181.884
9981953	-182.047
9984001	-169.158
9986049	-160.364
9988097	-149.942
9990145	-148.84
9992193	-158.115
9994241	-164.966
9996289	-141.291
9998337	-151.245
