1	-2437.98
2049	-2372.05
4097	-2337.2
6145	-2324.18
8193	-2307.88
10241	-2293.13
12289	-2262.3
14337	-2251.33
16385	-2222.54
18433	-2226.46
20481	-2208.89
22529	-2217.23
24577	-2209
26625	-2184.45
28673	-2163.23
30721	-2159.48
32769	-2160.53
34817	-2152.17
36865	-2159.22
38913	-2147.53
40961	-2137.56
43009	-2137.71
45057	-2124.54
47105	-2130.4
49153	-2113.03
51201	-2119.69
53249	-2110.05
55297	-2101.92
57345	-2107.54
59393	-2082.18
61441	-2094.06
63489	-2079.88
65537	-2054.25
67585	-2015.72
69633	-2031.7
71681	-1996
73729	-2004.28
75777	-2042.08
77825	-2029.05
79873	-2014.8
81921	-2007.19
83969	-1969.99
86017	-1966.12
88065	-1957.66
90113	-1976.11
92161	-1966.02
94209	-1941.92
96257	-1918.72
98305	-1900.65
100353	-1900.22
102401	-1893.3
104449	-1927.72
106497	-1938.71
108545	-1901.76
110593	-1876.93
112641	-1887.6
114689	-1880.18
116737	-1875.12
118785	-1872.33
120833	-1849.83
122881	-1845.75
124929	-1848.79
126977	-1849.22
129025	-1863.45
131073	-1868.38
133121	-1872.85
135169	-1834.17
137217	-1854.68
139265	-1862.45
141313	-1845.74
143361	-1846.88
145409	-1850.67
147457	-1830.59
149505	-1839.17
151553	-1865.84
153601	-1843.29
155649	-1831.22
157697	-1807.85
159745	-1801.65
161793	-1805.2
163841	-1822.55
165889	-1790.1
167937	-1788.77
169985	-1782.4
172033	-1755.76
174081	-1749.34
176129	-1745.97
178177	-1756.67
180225	-1749.59
182273	-1735.64
184321	-1758.44
186369	-1753.46
188417	-1748.94
190465	-1735.36
192513	-1730.71
194561	-1732.04
196609	-1750.48
198657	-1742.33
200705	-1732.75
202753	-1733.45
204801	-1729.25
206849	-1727.96
208897	-1705.67
210945	-1687.92
212993	-1680.45
215041	-1693.05
217089	-1656.2
219137	-1675.4
221185	-1669.82
223233	-1655.3
225281	-1651.45
227329	-1648.31
229377	-1676.95
231425	-1668.42
233473	-1642.77
235521	-1636.57
237569	-1636.13
239617	-1635.64
241665	-1628.68
243713	-1626.33
245761	-1620.5
247809	-1605.66
249857	-1622.05
251905	-1605.95
253953	-1606.33
256001	-1600.65
258049	-1576.85
260097	-1574.76
262145	-1567.38
264193	-1583.61
266241	-1556.01
268289	-1553.57
270337	-1576
272385	-1545.22
274433	-1595.55
276481	-1581.46
278529	-1570.22
280577	-1514.16
282625	-1526.84
284673	-1510.14
286721	-1528.09
288769	-1520.95
290817	-1484.44
292865	-1486.09
294913	-1486.3
296961	-1493.72
299009	-1474.51
301057	-1480.2
303105	-1489.45
305153	-1486.08
307201	-1505.33
309249	-1484.19
311297	-1476.27
313345	-1465.31
315393	-1454.4
317441	-1456.73
319489	-1476.93
321537	-1445.66
323585	-1463.85
325633	-1446.72
327681	-1419.26
329729	-1446.25
331777	-1476.94
333825	-1473.48
335873	-1463.3
337921	-1460.31
339969	-1429.09
342017	-1441.31
344065	-1407.51
346113	-1420.8
348161	-1448.06
350209	-1433.74
352257	-1408.19
354305	-1392.1
356353	-1380.82
358401	-1366.15
360449	-1379.24
362497	-1398.62
364545	-1379.65
366593	-1406.46
368641	-1393.6
370689	-1406.78
372737	-1415.51
374785	-1395.88
376833	-1375.58
378881	-1353.61
380929	-1349.2
382977	-1329.68
385025	-1322.5
387073	-1332.82
389121	-1332.71
391169	-1331.81
393217	-1312.04
395265	-1316.83
397313	-1308.41
399361	-1345.59
401409	-1333.19
403457	-1342.62
405505	-1357.39
407553	-1359.1
409601	-1359.5
411649	-1356.84
413697	-1332.8
415745	-1343.41
417793	-1350.11
419841	-1338.38
421889	-1352.82
423937	-1343.07
425985	-1350.9
428033	-1332.73
430081	-1312.66
432129	-1313.78
434177	-1309.1
436225	-1299.16
438273	-1304.39
440321	-1312.64
442369	-1303.06
444417	-1312.49
446465	-1309.09
448513	-1299.18
450561	-1320.11
452609	-1289.7
454657	-1283.81
456705	-1286.48
458753	-1282.21
460801	-1281.05
462849	-1288.7
464897	-1301.28
466945	-1276.99
468993	-1319.25
471041	-1304.51
473089	-1316.19
475137	-1308.75
477185	-1305.42
479233	-1297.78
481281	-1271.16
483329	-1287.72
485377	-1309.47
487425	-1299.55
489473	-1278.73
491521	-1258.4
493569	-1284.03
495617	-1299.78
497665	-1308.09
499713	-1276.42
501761	-1291.82
503809	-1276.36
505857	-1266.19
507905	-1263.55
509953	-1273.64
512001	-1275.45
514049	-1263.08
516097	-1265.6
518145	-1235.15
520193	-1235.03
522241	-1231.24
524289	-1259.07
526337	-1252.47
528385	-1233.14
530433	-1247.88
532481	-1230.4
534529	-1236.84
536577	-1227.09
538625	-1217.05
540673	-1257.48
542721	-1238.18
544769	-1264.62
546817	-1276.76
548865	-1301.24
550913	-1271
552961	-1254.45
555009	-1269.64
557057	-1280.39
559105	-1264.73
561153	-1280.03
563201	-1279
565249	-1245.71
567297	-1238.69
569345	-1256.85
571393	-1233.13
573441	-1247.96
575489	-1234.24
577537	-1215.92
579585	-1240.68
581633	-1267.29
583681	-1240.92
585729	-1215.81
587777	-1216.95
589825	-1231.32
591873	-1227.05
593921	-1253.45
595969	-1258.8
598017	-1236.89
600065	-1223.51
602113	-1240.8
604161	-1247.56
606209	-1238.09
608257	-1231.59
610305	-1247.37
612353	-1236.07
614401	-1234
616449	-1240.14
618497	-1231.85
620545	-1206.61
622593	-1219.75
624641	-1224.68
626689	-1232.81
628737	-1242.8
630785	-1253.68
632833	-1229.23
634881	-1218.59
636929	-1202.1
638977	-1234.67
641025	-1227.48
643073	-1236.6
645121	-1246.41
647169	-1221.87
649217	-1242.05
651265	-1241.22
653313	-1238.71
655361	-1206.99
657409	-1220.65
659457	-1208.95
661505	-1228.54
663553	-1211.58
665601	-1224.62
667649	-1213.58
669697	-1181.65
671745	-1150.37
673793	-1159.63
675841	-1162.36
677889	-1139.25
679937	-1170.96
681985	-1188.27
684033	-1158.11
686081	-1148.71
688129	-1175.37
690177	-1154.33
692225	-1165.83
694273	-1182.72
696321	-1181.87
698369	-1178.94
700417	-1174.25
702465	-1179.86
704513	-1170.79
706561	-1174.67
708609	-1159.31
710657	-1176.13
712705	-1159.56
714753	-1167.86
716801	-1159.63
718849	-1147.71
720897	-1124.87
722945	-1121.99
724993	-1149.61
727041	-1143.35
729089	-1151.52
731137	-1134.28
733185	-1123.18
735233	-1136.49
737281	-1146.65
739329	-1159.05
741377	-1148.01
743425	-1164.41
745473	-1155.3
747521	-1163.87
749569	-1152.81
751617	-1135.21
753665	-1157.27
755713	-1149.41
757761	-1117.16
759809	-1126.41
761857	-1129.63
763905	-1125.75
765953	-1096.22
768001	-1130.85
770049	-1115.16
772097	-1106.11
774145	-1105.3
776193	-1115.71
778241	-1097.79
780289	-1096.67
782337	-1096.48
784385	-1089.28
786433	-1120.84
788481	-1093.12
790529	-1073.24
792577	-1072.36
794625	-1091.18
796673	-1100.59
798721	-1096.29
800769	-1137.27
802817	-1135.26
804865	-1120.93
806913	-1120.72
808961	-1118.04
811009	-1105
813057	-1153.75
815105	-1152.27
817153	-1170.55
819201	-1174.78
821249	-1159.73
823297	-1130.93
825345	-1139.66
827393	-1147.77
829441	-1134.41
831489	-1124.68
833537	-1124.06
835585	-1084.9
837633	-1116.5
839681	-1120.45
841729	-1135.4
843777	-1077.44
845825	-1086.72
847873	-1124.65
849921	-1110.22
851969	-1077.73
854017	-1092.97
856065	-1062.05
858113	-1060.96
860161	-1092.47
862209	-1104.27
864257	-1091.26
866305	-1117.33
868353	-1090.82
870401	-1103.77
872449	-1094.04
874497	-1114.18
876545	-1076.48
878593	-1088.83
880641	-1075.2
882689	-1097.54
884737	-1097.02
886785	-1092.25
888833	-1070.58
890881	-1070.75
892929	-1080.63
894977	-1066.4
897025	-1073.61
899073	-1068.92
901121	-1098.25
903169	-1072.4
905217	-1089.06
907265	-1072.25
909313	-1072.95
911361	-1076.17
913409	-1070.03
915457	-1072.94
917505	-1089.58
919553	-1071.16
921601	-1073.83
923649	-1076.33
925697	-1070.71
927745	-1097.52
929793	-1109.91
931841	-1090.05
933889	-1097.12
935937	-1085.74
937985	-1088.97
940033	-1079.37
942081	-1068.55
944129	-1093.58
946177	-1087.47
948225	-1077.32
950273	-1080.95
952321	-1071.91
954369	-1061.23
956417	-1054.03
958465	-1053.35
960513	-1080.3
962561	-1080.8
964609	-1099.09
966657	-1094.69
968705	-1085.48
970753	-1089.04
972801	-1101.43
974849	-1070.19
976897	-1068.08
978945	-1080.36
980993	-1076.76
983041	-1061.2
985089	-1080.65
987137	-1078.37
989185	-1066.85
991233	-1079.51
993281	-1098.71
995329	-1068.41
997377	-1046.57
999425	-1069.36
1001473	-1070.85
1003521	-1072.14
1005569	-1069.54
1007617	-1072
1009665	-1069.73
1011713	-1089.3
1013761	-1113.09
1015809	-1109.77
1017857	-1106.36
1019905	-1133.25
1021953	-1116.17
1024001	-1144.69
1026049	-1102
1028097	-1095.42
1030145	-1092.86
1032193	-1107.5
1034241	-1068.03
1036289	-1100.52
1038337	-1061.57
1040385	-1061.02
1042433	-1050.06
1044481	-1093.34
1046529	-1117.2
1048577	-1099.3
1050625	-1103.62
1052673	-1079.81
1054721	-1088.97
1056769	-1074.57
1058817	-1085.5
1060865	-1071.91
1062913	-1065.85
1064961	-1074.22
1067009	-1101.56
1069057	-1107.05
1071105	-1089.3
1073153	-1106.45
1075201	-1105.24
1077249	-1104.3
1079297	-1076.02
1081345	-1087.73
1083393	-1103.4
1085441	-1102
1087489	-1101.84
1089537	-1109.43
1091585	-1131.73
1093633	-1091.14
1095681	-1103.68
1097729	-1114.14
1099777	-1093.46
1101825	-1066.14
1103873	-1065
1105921	-1082.23
1107969	-1088.26
1110017	-1073.19
1112065	-1103.67
1114113	-1091.87
1116161	-1060.7
1118209	-1061.48
1120257	-1087.96
1122305	-1098.46
1124353	-1084.87
1126401	-1087.33
1128449	-1096.36
1130497	-1092.33
1132545	-1092.5
1134593	-1091.14
1136641	-1097.66
1138689	-1102.47
1140737	-1112.38
1142785	-1093.35
1144833	-1075.12
1146881	-1070.07
1148929	-1077.54
1150977	-1064.05
1153025	-1062.1
1155073	-1041.51
1157121	-1053.64
1159169	-1068.33
1161217	-1066.66
1163265	-1060.37
1165313	-1069.4
1167361	-1070.55
1169409	-1085.8
1171457	-1073.42
1173505	-1060.16
1175553	-1061.76
1177601	-1060.42
1179649	-1055.96
1181697	-1055.26
1183745	-1072.45
1185793	-1073.93
1187841	-1061.89
1189889	-1068.16
1191937	-1072.21
1193985	-1087.59
1196033	-1070.97
1198081	-1047.4
1200129	-1070.13
1202177	-1067.37
1204225	-1059.89
1206273	-1072.1
1208321	-1035.36
1210369	-1032.35
1212417	-1020.3
1214465	-1041.53
1216513	-1053.81
1218561	-1031.27
1220609	-1056.22
1222657	-1052.1
1224705	-1050.68
1226753	-1058.17
1228801	-1046.73
1230849	-1044.15
1232897	-1025.56
1234945	-1025.92
1236993	-1057.85
1239041	-1070.64
1241089	-1057.83
1243137	-1083.13
1245185	-1069.1
1247233	-1043.48
1249281	-1067.59
1251329	-1062.6
1253377	-1062.56
1255425	-1064.62
1257473	-1078.16
1259521	-1093.96
1261569	-1085.95
1263617	-1086.1
1265665	-1073.13
1267713	-1071.85
1269761	-1080.6
1271809	-1072.27
1273857	-1047.54
1275905	-1068.07
1277953	-1079.35
1280001	-1080.17
1282049	-1093.8
1284097	-1086.36
1286145	-1091.05
1288193	-1077.58
1290241	-1074.23
1292289	-1086.12
1294337	-1075.95
1296385	-1033.53
1298433	-1023.8
1300481	-1059.26
1302529	-1046.11
1304577	-1066.42
1306625	-1031.5
1308673	-1061.16
1310721	-1068.76
1312769	-1082.05
1314817	-1065.62
1316865	-1092.46
1318913	-1072.97
1320961	-1075.15
1323009	-1066.18
1325057	-1086.07
1327105	-1073.33
1329153	-1051.88
1331201	-1079.39
1333249	-1092.95
1335297	-1075.23
1337345	-1058.95
1339393	-1066.7
1341441	-1058.36
1343489	-1086.35
1345537	-1083.19
1347585	-1108.46
1349633	-1090.62
1351681	-1075.65
1353729	-1073.47
1355777	-1057.08
1357825	-1060.74
1359873	-1083.28
1361921	-1124.94
1363969	-1087.38
1366017	-1080.35
1368065	-1072.34
1370113	-1057.25
1372161	-1084.99
1374209	-1059.23
1376257	-1056.93
1378305	-1065.31
1380353	-1095.33
1382401	-1102.12
1384449	-1115.71
1386497	-1100.84
1388545	-1120.12
1390593	-1125.21
1392641	-1122.26
1394689	-1130.24
1396737	-1134.83
1398785	-1114.73
1400833	-1119.1
1402881	-1093.87
1404929	-1116.72
1406977	-1092.4
1409025	-1092.05
1411073	-1097
1413121	-1097.75
1415169	-1094.94
1417217	-1090.76
1419265	-1092.41
1421313	-1091.14
1423361	-1068.64
1425409	-1058.94
1427457	-1061.4
1429505	-1076.07
1431553	-1095.2
1433601	-1074.18
1435649	-1063.37
1437697	-1049.02
1439745	-1031.74
1441793	-1052.75
1443841	-1078.06
1445889	-1058.87
1447937	-1079.82
1449985	-1093.23
1452033	-1054.9
1454081	-1067.25
1456129	-1060.62
1458177	-1081.94
1460225	-1053.86
1462273	-1044.41
1464321	-1038.01
1466369	-1058.66
1468417	-1057.64
1470465	-1079.52
1472513	-1078.23
1474561	-1078.06
1476609	-1044.71
1478657	-1071.97
1480705	-1062.55
1482753	-1071.19
1484801	-1050.89
1486849	-1080.36
1488897	-1062.76
1490945	-1092.69
1492993	-1103.28
1495041	-1099.48
1497089	-1114.4
1499137	-1066.15
1501185	-1064.43
1503233	-1085.9
1505281	-1078.32
1507329	-1056.84
1509377	-1058.81
1511425	-1046.05
1513473	-1048.03
1515521	-1066.08
1517569	-1051.1
1519617	-1088.09
1521665	-1081.02
1523713	-1089.2
1525761	-1106.43
1527809	-1107.09
1529857	-1089.87
1531905	-1094.57
1533953	-1063.93
1536001	-1092.67
1538049	-1094.86
1540097	-1084.8
1542145	-1088.82
1544193	-1088.87
1546241	-1102.29
1548289	-1078.4
1550337	-1088.2
1552385	-1064.55
1554433	-1058.56
1556481	-1078.15
1558529	-1073.91
1560577	-1109.57
1562625	-1109.93
1564673	-1084.62
1566721	-1096.22
1568769	-1097.68
1570817	-1075.89
1572865	-1076.85
1574913	-1061.14
1576961	-1067.86
1579009	-1045.75
1581057	-1060.85
1583105	-1080.89
1585153	-1053.65
1587201	-1053.96
1589249	-1059.57
1591297	-1065.43
1593345	-1066.46
1595393	-1031.86
1597441	-1062.96
1599489	-1063.91
1601537	-1082.67
1603585	-1056.63
1605633	-1047.62
1607681	-1044.57
1609729	-1046.06
1611777	-1030.23
1613825	-1046.02
1615873	-1023.71
1617921	-1046.29
1619969	-1021.72
1622017	-1053.66
1624065	-1042.04
1626113	-1056.99
1628161	-1046.93
1630209	-1039.19
1632257	-1027.81
1634305	-1032.02
1636353	-1042.56
1638401	-1043.31
1640449	-1070.19
1642497	-1063.97
1644545	-1046.32
1646593	-1068.21
1648641	-1090.79
1650689	-1068.05
1652737	-1039.92
1654785	-1044.36
1656833	-1064.68
1658881	-1052.95
1660929	-1078.79
1662977	-1064.62
1665025	-1043.98
1667073	-1037.84
1669121	-1064.82
1671169	-1071.27
1673217	-1046.99
1675265	-1021.46
1677313	-1032.52
1679361	-1007.15
1681409	-1028.36
1683457	-1025.16
1685505	-1024.15
1687553	-1035.38
1689601	-1032.1
1691649	-1041.87
1693697	-1041.35
1695745	-1048.52
1697793	-1052.16
1699841	-1052.36
1701889	-1061.98
1703937	-1060.44
1705985	-1073.42
1708033	-1063.43
1710081	-1086.59
1712129	-1066.04
1714177	-1082.45
1716225	-1083.41
1718273	-1079.43
1720321	-1097.83
1722369	-1086.17
1724417	-1094.75
1726465	-1103.34
1728513	-1089.91
1730561	-1118.09
1732609	-1097.95
1734657	-1120.99
1736705	-1117.64
1738753	-1118.18
1740801	-1127.63
1742849	-1132.18
1744897	-1126.17
1746945	-1119.65
1748993	-1106.21
1751041	-1103.41
1753089	-1114.15
1755137	-1113.89
1757185	-1099.26
1759233	-1112.37
1761281	-1058.93
1763329	-1096.38
1765377	-1076.65
1767425	-1082.4
1769473	-1062.1
1771521	-1093.13
1773569	-1099.01
1775617	-1078.9
1777665	-1096.27
1779713	-1090
1781761	-1122.34
1783809	-1128.16
1785857	-1112.3
1787905	-1114.46
1789953	-1120.98
1792001	-1118.65
1794049	-1113.72
1796097	-1106.59
1798145	-1095.93
1800193	-1139.58
1802241	-1090.62
1804289	-1099.08
1806337	-1124.68
1808385	-1097.97
1810433	-1121.12
1812481	-1113.97
1814529	-1120.65
1816577	-1130.15
1818625	-1124.37
1820673	-1117.65
1822721	-1128.1
1824769	-1140.96
1826817	-1134.6
1828865	-1120.61
1830913	-1108.12
1832961	-1088.1
1835009	-1086.42
1837057	-1077.99
1839105	-1082.87
1841153	-1106.26
1843201	-1099
1845249	-1076.78
1847297	-1094.12
1849345	-1075.71
1851393	-1082.08
1853441	-1117.69
1855489	-1099.59
1857537	-1114.19
1859585	-1103.11
1861633	-1105.92
1863681	-1109.45
1865729	-1111.37
1867777	-1113.26
1869825	-1119.77
1871873	-1130.89
1873921	-1095.5
1875969	-1091.13
1878017	-1108.45
1880065	-1057.66
1882113	-1091.01
1884161	-1097.81
1886209	-1093.98
1888257	-1082.82
1890305	-1055.77
1892353	-1076.83
1894401	-1058.23
1896449	-1044.07
1898497	-1055.63
1900545	-1053.87
1902593	-1065.96
1904641	-1066.78
1906689	-1069.7
1908737	-1086.82
1910785	-1069.02
1912833	-1054.98
1914881	-1054.88
1916929	-1061.95
1918977	-1069.86
1921025	-1088.28
1923073	-1091.76
1925121	-1059.29
1927169	-1061.68
1929217	-1068.61
1931265	-1041.88
1933313	-1029.77
1935361	-1092.73
1937409	-1070.14
1939457	-1089.2
1941505	-1089.86
1943553	-1095.02
1945601	-1086.91
1947649	-1092.66
1949697	-1091.33
1951745	-1079.5
1953793	-1063.8
1955841	-1078.37
1957889	-1078.83
1959937	-1084.57
1961985	-1073.16
1964033	-1066.35
1966081	-1076.56
1968129	-1088
1970177	-1106.81
1972225	-1107.84
1974273	-1116.98
1976321	-1117.97
1978369	-1096.49
1980417	-1088.16
1982465	-1099.09
1984513	-1097.81
1986561	-1102.89
1988609	-1079.7
1990657	-1091.73
1992705	-1094.25
1994753	-1096.05
1996801	-1071.7
1998849	-1081.52
2000897	-1068.17
2002945	-1093.32
2004993	-1085.58
2007041	-1084.81
2009089	-1086.5
2011137	-1104.02
2013185	-1057.87
2015233	-1072.08
2017281	-1059.55
2019329	-1064.88
2021377	-1063.82
2023425	-1061.98
2025473	-1069.82
2027521	-1067.15
2029569	-1054.3
2031617	-1081.88
2033665	-1053.03
2035713	-1089.64
2037761	-1091.51
2039809	-1063.54
2041857	-1076.61
2043905	-1061.73
2045953	-1059.88
2048001	-1060.06
2050049	-1039.01
2052097	-1045.51
2054145	-1078.98
2056193	-1077.63
2058241	-1065.54
2060289	-1070.15
2062337	-1096.28
2064385	-1111.04
2066433	-1087.66
2068481	-1067.66
2070529	-1095.79
2072577	-1059.68
2074625	-1051.27
2076673	-1077.56
2078721	-1058.43
2080769	-1086.13
2082817	-1043.72
2084865	-1025.46
2086913	-1037.13
2088961	-1047.48
2091009	-1066.6
2093057	-1038.18
2095105	-1036.8
2097153	-1052.55
2099201	-1056.15
2101249	-1093.65
2103297	-1068.5
2105345	-1054.09
2107393	-1063.98
2109441	-1094.69
2111489	-1091.68
2113537	-1087.3
2115585	-1078.44
2117633	-1058.68
2119681	-1080.51
2121729	-1055.81
2123777	-1052.14
2125825	-1064.41
2127873	-1075.53
2129921	-1063.66
2131969	-1062.58
2134017	-1086.03
2136065	-1079.03
2138113	-1060.15
2140161	-1071.22
2142209	-1076.85
2144257	-1086.95
2146305	-1062.28
2148353	-1052.01
2150401	-1075.01
2152449	-1066.19
2154497	-1065.73
2156545	-1072.71
2158593	-1055.66
2160641	-1064.65
2162689	-1088.95
2164737	-1102.01
2166785	-1076.71
2168833	-1088.11
2170881	-1077.69
2172929	-1090.64
2174977	-1089.33
2177025	-1072.23
2179073	-1060.1
2181121	-1070.95
2183169	-1047.16
2185217	-1035.44
2187265	-1063.74
2189313	-1053.15
2191361	-1034.85
2193409	-1067.62
2195457	-1036.13
2197505	-1060
2199553	-1068.03
2201601	-1060.58
2203649	-1060
2205697	-1059.22
2207745	-1042.89
2209793	-1068.23
2211841	-1043.44
2213889	-1050.22
2215937	-1061.5
2217985	-1101.71
2220033	-1104.99
2222081	-1104.24
2224129	-1072.78
2226177	-1072.61
2228225	-1058.18
2230273	-1066.05
2232321	-1088.13
2234369	-1070.59
2236417	-1063.51
2238465	-1085.15
2240513	-1096.94
2242561	-1104.18
2244609	-1084.16
2246657	-1060.59
2248705	-1076.7
2250753	-1092.64
2252801	-1125.44
2254849	-1123.42
2256897	-1096.63
2258945	-1098.37
2260993	-1099.9
2263041	-1093.48
2265089	-1100.89
2267137	-1082.14
2269185	-1094.39
2271233	-1088.16
2273281	-1082.31
2275329	-1103.48
2277377	-1090.7
2279425	-1052.64
2281473	-1063.54
2283521	-1062.69
2285569	-1044.38
2287617	-1025.4
2289665	-1063.41
2291713	-1055.65
2293761	-1053.76
2295809	-1044.04
2297857	-1052.17
2299905	-1038.28
2301953	-1071.6
2304001	-1075.08
2306049	-1060.83
2308097	-1050.74
2310145	-1024.99
2312193	-1036.63
2314241	-1036.57
2316289	-1033.97
2318337	-1051.42
2320385	-1060.62
2322433	-1048.44
2324481	-1046.19
2326529	-1038.1
2328577	-1069.55
2330625	-1059.05
2332673	-1057.14
2334721	-1070.85
2336769	-1090.79
2338817	-1077.19
2340865	-1096.66
2342913	-1121.21
2344961	-1116.78
2347009	-1115.79
2349057	-1135.03
2351105	-1109.69
2353153	-1099.99
2355201	-1098.46
2357249	-1083.67
2359297	-1062.43
2361345	-1093.76
2363393	-1095.3
2365441	-1097.2
2367489	-1144.78
2369537	-1132.19
2371585	-1102.63
2373633	-1106.99
2375681	-1093.55
2377729	-1090.99
2379777	-1073.22
2381825	-1069.83
2383873	-1083.44
2385921	-1084.58
2387969	-1065.65
2390017	-1116.56
2392065	-1080.61
2394113	-1085.99
2396161	-1086.7
2398209	-1081.09
2400257	-1064.71
2402305	-1082.74
2404353	-1098.3
2406401	-1079.87
2408449	-1098.55
2410497	-1122.56
2412545	-1105.93
2414593	-1078.66
2416641	-1081.18
2418689	-1097.68
2420737	-1074.91
2422785	-1093.57
2424833	-1062.84
2426881	-1074.15
2428929	-1105.65
2430977	-1091.54
2433025	-1082.05
2435073	-1075.18
2437121	-1067.35
2439169	-1061.43
2441217	-1072.62
2443265	-1096.63
2445313	-1072.9
2447361	-1092.53
2449409	-1089.29
2451457	-1082.34
2453505	-1104.58
2455553	-1081.17
2457601	-1085.92
2459649	-1103.86
2461697	-1113.9
2463745	-1109.43
2465793	-1094.63
2467841	-1091.97
2469889	-1082.21
2471937	-1110.91
2473985	-1096.18
2476033	-1070.86
2478081	-1066.52
2480129	-1068.83
2482177	-1081.43
2484225	-1075.68
2486273	-1062.75
2488321	-1085.4
2490369	-1079.19
2492417	-1087.91
2494465	-1093.19
2496513	-1094.41
2498561	-1090.04
2500609	-1079.92
2502657	-1089.61
2504705	-1075.23
2506753	-1086.74
2508801	-1094.72
2510849	-1110.75
2512897	-1091.35
2514945	-1109.55
2516993	-1091.75
2519041	-1092.46
2521089	-1087.44
2523137	-1091.79
2525185	-1061.18
2527233	-1057.8
2529281	-1074.63
2531329	-1054.51
2533377	-1054.56
2535425	-1048.82
2537473	-1052.11
2539521	-1036.61
2541569	-1052.59
2543617	-1059.41
2545665	-1061.35
2547713	-1054.27
2549761	-1042.97
2551809	-1070.57
2553857	-1069.14
2555905	-1077.38
2557953	-1072.4
2560001	-1076.74
2562049	-1071.37
2564097	-1042.18
2566145	-1044.2
2568193	-1060.39
2570241	-1084.77
2572289	-1082.52
2574337	-1084.7
2576385	-1094.07
2578433	-1107.58
2580481	-1102.38
2582529	-1071.56
2584577	-1076.31
2586625	-1065.84
2588673	-1105.25
2590721	-1105.09
2592769	-1102.98
2594817	-1106.3
2596865	-1108.43
2598913	-1115.78
2600961	-1110.08
2603009	-1099.9
2605057	-1081.07
2607105	-1083.46
2609153	-1104.6
2611201	-1094.87
2613249	-1124
2615297	-1097.54
2617345	-1098.97
2619393	-1092.95
2621441	-1097.21
2623489	-1083.27
2625537	-1120.42
2627585	-1094.61
2629633	-1078.88
2631681	-1097.45
2633729	-1091.07
2635777	-1114.45
2637825	-1108.07
2639873	-1108.38
2641921	-1096.22
2643969	-1101.31
2646017	-1080.31
2648065	-1091.87
2650113	-1091.63
2652161	-1105.68
2654209	-1085.72
2656257	-1096.31
2658305	-1089.46
2660353	-1112.06
2662401	-1092.31
2664449	-1079.46
2666497	-1086.16
2668545	-1113.45
2670593	-1083.51
2672641	-1064.84
2674689	-1051.74
2676737	-1059.84
2678785	-1044.35
2680833	-1058.96
2682881	-1059.71
2684929	-1057.12
2686977	-1065.77
2689025	-1039.51
2691073	-1063.92
2693121	-1056.98
2695169	-1059.59
2697217	-1036.98
2699265	-1025.4
2701313	-1047.65
2703361	-1055.48
2705409	-1041.03
2707457	-1023.36
2709505	-1041.06
2711553	-1048.24
2713601	-1052.32
2715649	-1087.53
2717697	-1050.5
2719745	-1055.88
2721793	-1051.12
2723841	-1068.87
2725889	-1054.7
2727937	-1067.04
2729985	-1066.14
2732033	-1062.83
2734081	-1051.86
2736129	-1023.24
2738177	-1050.03
2740225	-1049.88
2742273	-1073.84
2744321	-1069.26
2746369	-1069.64
2748417	-1105.17
2750465	-1091.69
2752513	-1099.09
2754561	-1089.81
2756609	-1112.99
2758657	-1069.85
2760705	-1086.3
2762753	-1077.76
2764801	-1080.62
2766849	-1078.47
2768897	-1066.98
2770945	-1068.89
2772993	-1070.44
2775041	-1059.16
2777089	-1062.11
2779137	-1031.76
2781185	-1048.21
2783233	-1051.71
2785281	-1066.29
2787329	-1070.4
2789377	-1079.5
2791425	-1090.69
2793473	-1086.23
2795521	-1071.94
2797569	-1093.31
2799617	-1125.2
2801665	-1121.1
2803713	-1107.99
2805761	-1100.24
2807809	-1091.59
2809857	-1119.41
2811905	-1088.6
2813953	-1087.18
2816001	-1094.21
2818049	-1107.58
2820097	-1082.83
2822145	-1096.6
2824193	-1079.25
2826241	-1082.01
2828289	-1080.75
2830337	-1090.91
2832385	-1105.09
2834433	-1080.89
2836481	-1057.07
2838529	-1088.31
2840577	-1099.43
2842625	-1113.78
2844673	-1099.24
2846721	-1080.76
2848769	-1086.56
2850817	-1083.83
2852865	-1052.62
2854913	-1108.56
2856961	-1087.1
2859009	-1061.84
2861057	-1073.73
2863105	-1051.78
2865153	-1057.28
2867201	-1089.9
2869249	-1086.63
2871297	-1074.53
2873345	-1082.01
2875393	-1067.77
2877441	-1053.02
2879489	-1073.15
2881537	-1070.85
2883585	-1099.77
2885633	-1102.95
2887681	-1072.67
2889729	-1066.06
2891777	-1056.42
2893825	-1057.67
2895873	-1023.93
2897921	-1041.58
2899969	-1043.17
2902017	-1071.84
2904065	-1082.31
2906113	-1090.22
2908161	-1104.11
2910209	-1099.12
2912257	-1087.51
2914305	-1099.41
2916353	-1095.7
2918401	-1085.28
2920449	-1084.38
2922497	-1071.94
2924545	-1083.76
2926593	-1098.88
2928641	-1089.41
2930689	-1109.96
2932737	-1096.95
2934785	-1079.62
2936833	-1048.77
2938881	-1096.35
2940929	-1080.42
2942977	-1074.11
2945025	-1061.16
2947073	-1074.2
2949121	-1060.78
2951169	-1078.44
2953217	-1078.33
2955265	-1102.38
2957313	-1059.6
2959361	-1067.19
2961409	-1074.55
2963457	-1098.05
2965505	-1096.81
2967553	-1078.98
2969601	-1077.4
2971649	-1087.05
2973697	-1083.48
2975745	-1094.39
2977793	-1096.4
2979841	-1122.74
2981889	-1114.22
2983937	-1141.01
2985985	-1118.29
2988033	-1098.46
2990081	-1082.65
2992129	-1076.67
2994177	-1074.61
2996225	-1070.6
2998273	-1081.12
3000321	-1078.91
3002369	-1052.59
3004417	-1064.56
3006465	-1055.71
3008513	-1080.23
3010561	-1082.84
3012609	-1057.79
3014657	-1064.73
3016705	-1060.32
3018753	-1045.79
3020801	-1066.13
3022849	-1050.2
3024897	-1036.59
3026945	-1065.31
3028993	-1072.28
3031041	-1054.23
3033089	-1047.83
3035137	-1066.59
3037185	-1086.2
3039233	-1085.32
3041281	-1060.82
3043329	-1075.3
3045377	-1076.43
3047425	-1054.25
3049473	-1073.54
3051521	-1077.99
3053569	-1072.92
3055617	-1074.54
3057665	-1081.75
3059713	-1057.23
3061761	-1060.01
3063809	-1085.45
3065857	-1051.14
3067905	-1035.24
3069953	-1032.87
3072001	-1037.6
3074049	-1065.15
3076097	-1099.21
3078145	-1075.9
3080193	-1052.29
3082241	-1063.54
3084289	-1073.38
3086337	-1059.39
3088385	-1018.91
3090433	-1056.15
3092481	-1048.02
3094529	-1050.2
3096577	-1096.96
3098625	-1068.59
3100673	-1047.21
3102721	-1078.69
3104769	-1074.57
3106817	-1085.59
3108865	-1096.74
3110913	-1083.82
3112961	-1073.59
3115009	-1073.35
3117057	-1069.36
3119105	-1074.67
3121153	-1055.95
3123201	-1064.37
3125249	-1064.78
3127297	-1048.22
3129345	-1068.15
3131393	-1075
3133441	-1071.77
3135489	-1079.47
3137537	-1077.69
3139585	-1103.37
3141633	-1096.26
3143681	-1080.25
3145729	-1093.13
3147777	-1054.77
3149825	-1064.33
3151873	-1061.38
3153921	-1087.23
3155969	-1085.28
3158017	-1071.03
3160065	-1037.3
3162113	-1052.84
3164161	-1044.19
3166209	-1046.35
3168257	-1043.69
3170305	-1081.12
3172353	-1085.27
3174401	-1075.58
3176449	-1041.82
3178497	-1078.65
3180545	-1079.48
3182593	-1077.76
3184641	-1072.72
3186689	-1095.09
3188737	-1118.07
3190785	-1108.58
3192833	-1095.53
3194881	-1080.57
3196929	-1078.66
3198977	-1122.15
3201025	-1101.37
3203073	-1114.1
3205121	-1108.59
3207169	-1111.24
3209217	-1123.45
3211265	-1096.32
3213313	-1109.15
3215361	-1104.07
3217409	-1102.07
3219457	-1055.59
3221505	-1069.62
3223553	-1059.39
3225601	-1053.97
3227649	-1052.88
3229697	-1059.38
3231745	-1081.33
3233793	-1068.75
3235841	-1076.03
3237889	-1059.61
3239937	-1082.62
3241985	-1095.25
3244033	-1096.44
3246081	-1085.72
3248129	-1090.89
3250177	-1081.52
3252225	-1095.55
3254273	-1042.45
3256321	-1028.9
3258369	-1061.42
3260417	-1041.21
3262465	-1078.7
3264513	-1064.72
3266561	-1061.51
3268609	-1066.13
3270657	-1054.67
3272705	-1039.4
3274753	-1062.19
3276801	-1069.79
3278849	-1065.72
3280897	-1046.77
3282945	-1077.03
3284993	-1086.23
3287041	-1051.41
3289089	-1065.52
3291137	-1096.98
3293185	-1083.28
3295233	-1085.46
3297281	-1097.17
3299329	-1042.35
3301377	-1060.63
3303425	-1066.64
3305473	-1053.19
3307521	-1058.27
3309569	-1082.98
3311617	-1065.79
3313665	-1037.39
3315713	-1058.69
3317761	-1049.19
3319809	-1071.19
3321857	-1041.69
3323905	-1049.85
3325953	-1059.95
3328001	-1070.04
3330049	-1053.93
3332097	-1092.07
3334145	-1064.87
3336193	-1063.38
3338241	-1072.26
3340289	-1083.43
3342337	-1096.35
3344385	-1072.49
3346433	-1074.28
3348481	-1056.06
3350529	-1045.95
3352577	-1081.02
3354625	-1069.77
3356673	-1079.92
3358721	-1074.79
3360769	-1081.4
3362817	-1096.08
3364865	-1087.2
3366913	-1078.82
3368961	-1107.52
3371009	-1077.86
3373057	-1082.39
3375105	-1063.2
3377153	-1068.2
3379201	-1056.61
3381249	-1068.04
3383297	-1063.87
3385345	-1080.22
3387393	-1084.75
3389441	-1059.16
3391489	-1058.69
3393537	-1067.83
3395585	-1060.53
3397633	-1052.66
3399681	-1066.6
3401729	-1079.74
3403777	-1078.33
3405825	-1068.37
3407873	-1033.99
3409921	-1060.68
3411969	-1047.94
3414017	-1070.83
3416065	-1056.73
3418113	-1053.74
3420161	-1053.44
3422209	-1044.56
3424257	-1061.34
3426305	-1079.09
3428353	-1065.54
3430401	-1080.01
3432449	-1083.77
3434497	-1081.54
3436545	-1062.37
3438593	-1057.01
3440641	-1052.03
3442689	-1063.75
3444737	-1057.18
3446785	-1054.96
3448833	-1069.45
3450881	-1081.57
3452929	-1062.4
3454977	-1078.59
3457025	-1061.56
3459073	-1060.02
3461121	-1059.68
3463169	-1064.74
3465217	-1045.39
3467265	-1029.27
3469313	-1015.01
3471361	-1023.4
3473409	-1019.69
3475457	-1038.38
3477505	-1056.17
3479553	-1045.95
3481601	-1066.05
3483649	-1071.86
3485697	-1080.94
3487745	-1075.76
3489793	-1070.5
3491841	-1049.17
3493889	-1044.37
3495937	-1057.93
3497985	-1053.57
3500033	-1024.35
3502081	-1037.26
3504129	-1033.41
3506177	-1034.86
3508225	-1085.4
3510273	-1066.99
3512321	-1082.65
3514369	-1051.03
3516417	-1049.47
3518465	-1082.92
3520513	-1066.03
3522561	-1108.08
3524609	-1075.63
3526657	-1075.77
3528705	-1105.98
3530753	-1052.58
3532801	-1047.61
3534849	-1054.88
3536897	-1054.65
3538945	-1070.75
3540993	-1029.57
3543041	-1038.07
3545089	-1031.31
3547137	-1036.39
3549185	-1038.05
3551233	-1048.07
3553281	-1069.8
3555329	-1068.16
3557377	-1081.22
3559425	-1054.91
3561473	-1099.99
3563521	-1096.72
3565569	-1068.16
3567617	-1081.27
3569665	-1104.14
3571713	-1108.18
3573761	-1084.08
3575809	-1091.58
3577857	-1108.37
3579905	-1108.47
3581953	-1115.71
3584001	-1107.79
3586049	-1102.25
3588097	-1095.89
3590145	-1082.53
3592193	-1079.98
3594241	-1067.57
3596289	-1073.6
3598337	-1047.63
3600385	-1064.4
3602433	-1075.52
3604481	-1049.68
3606529	-1035.29
3608577	-1031.87
3610625	-1050.18
3612673	-1060.54
3614721	-1022.75
3616769	-1057.49
3618817	-1054.63
3620865	-1071.73
3622913	-1088.19
3624961	-1081.06
3627009	-1083.66
3629057	-1076.1
3631105	-1046.7
3633153	-1064.02
3635201	-1084.97
3637249	-1059.37
3639297	-1058.17
3641345	-1051.5
3643393	-1037.32
3645441	-1046.85
3647489	-1048.02
3649537	-1052.16
3651585	-1082.99
3653633	-1080.85
3655681	-1063.42
3657729	-1064.56
3659777	-1064.83
3661825	-1065.76
3663873	-1064.22
3665921	-1049.21
3667969	-1083.55
3670017	-1084.41
3672065	-1084.45
3674113	-1083.11
3676161	-1079.85
3678209	-1053.2
3680257	-1071.83
3682305	-1044.17
3684353	-1046.99
3686401	-1058.12
3688449	-1068.21
3690497	-1084.82
3692545	-1060.98
3694593	-1084.67
3696641	-1051.64
3698689	-1085.78
3700737	-1080.33
3702785	-1093.53
3704833	-1098.1
3706881	-1077.5
3708929	-1091.67
3710977	-1093.99
3713025	-1086.04
3715073	-1089.5
3717121	-1071.71
3719169	-1067.02
3721217	-1053.28
3723265	-1063.33
3725313	-1029.83
3727361	-1053.6
3729409	-1049.31
3731457	-1067.93
3733505	-1065.75
3735553	-1053.27
3737601	-1065.45
3739649	-1057.51
3741697	-1096.74
3743745	-1094.32
3745793	-1083.67
3747841	-1088.41
3749889	-1078.15
3751937	-1101.57
3753985	-1104.87
3756033	-1102.1
3758081	-1078.23
3760129	-1080.35
3762177	-1069.66
3764225	-1073.57
3766273	-1088.81
3768321	-1057.26
3770369	-1056.34
3772417	-1059.7
3774465	-1078.62
3776513	-1073.02
3778561	-1051.57
3780609	-1058.46
3782657	-1073.52
3784705	-1060.62
3786753	-1067.71
3788801	-1088.45
3790849	-1071.66
3792897	-1060.3
3794945	-1065.07
3796993	-1080.83
3799041	-1069.33
3801089	-1067.88
3803137	-1066.24
3805185	-1078
3807233	-1100.32
3809281	-1099.4
3811329	-1080.04
3813377	-1050.28
3815425	-1070.21
3817473	-1047.18
3819521	-1053.53
3821569	-1063.78
3823617	-1060.67
3825665	-1080.23
3827713	-1093.27
3829761	-1056.8
3831809	-1054.42
3833857	-1045.01
3835905	-1067.29
3837953	-1066.02
3840001	-1080.56
3842049	-1070.9
3844097	-1083.23
3846145	-1084.74
3848193	-1057.27
3850241	-1074.69
3852289	-1068.25
3854337	-1055.12
3856385	-1065.2
3858433	-1044.59
3860481	-1045.33
3862529	-1046.04
3864577	-1043.72
3866625	-1047.38
3868673	-1037.98
3870721	-1036.04
3872769	-1048.08
3874817	-1055.82
3876865	-1042.8
3878913	-1058.27
3880961	-1052.7
3883009	-1088.39
3885057	-1072.44
3887105	-1060.53
3889153	-1074.96
3891201	-1071.6
3893249	-1064.68
3895297	-1061.73
3897345	-1066.53
3899393	-1075.39
3901441	-1087.31
3903489	-1062.04
3905537	-1065.26
3907585	-1062.03
3909633	-1053.89
3911681	-1062.38
3913729	-1090.78
3915777	-1080.81
3917825	-1091.08
3919873	-1099.97
3921921	-1097.01
3923969	-1104.91
3926017	-1105.78
3928065	-1099.5
3930113	-1095.95
3932161	-1078.94
3934209	-1081.65
3936257	-1089.81
3938305	-1080.03
3940353	-1092.19
3942401	-1063.3
3944449	-1090.09
3946497	-1103.44
3948545	-1072.77
3950593	-1082.82
3952641	-1105.8
3954689	-1076.86
3956737	-1103.93
3958785	-1077.7
3960833	-1062.57
3962881	-1056.64
3964929	-1066.82
3966977	-1079.62
3969025	-1122.6
3971073	-1093.39
3973121	-1079.92
3975169	-1062.12
3977217	-1058.24
3979265	-1064.46
3981313	-1067.55
3983361	-1103.5
3985409	-1084.63
3987457	-1077.35
3989505	-1088.56
3991553	-1081.6
3993601	-1088.03
3995649	-1080.64
3997697	-1073.77
3999745	-1054.38
4001793	-1088.08
4003841	-1078.97
4005889	-1061.95
4007937	-1055.28
4009985	-1061.79
4012033	-1065.51
4014081	-1048.42
4016129	-1037.84
4018177	-1045.97
4020225	-1036.13
4022273	-1072.35
4024321	-1056.81
4026369	-1051.31
4028417	-1081.8
4030465	-1058.35
4032513	-1065.38
4034561	-1069.09
4036609	-1071.83
4038657	-1085.27
4040705	-1085.59
4042753	-1065.17
4044801	-1074.48
4046849	-1080.44
4048897	-1097.14
4050945	-1097.97
4052993	-1092.52
4055041	-1085.88
4057089	-1075.5
4059137	-1094.72
4061185	-1072.76
4063233	-1094.31
4065281	-1120.15
4067329	-1122.2
4069377	-1118.9
4071425	-1086.65
4073473	-1083.96
4075521	-1075.43
4077569	-1097.23
4079617	-1071.38
4081665	-1083.07
4083713	-1083.11
4085761	-1076.54
4087809	-1057.38
4089857	-1055.24
4091905	-1046.79
4093953	-1070.14
4096001	-1059.67
4098049	-1062.74
4100097	-1053.56
4102145	-1064.73
4104193	-1033.92
4106241	-1072.06
4108289	-1055.16
4110337	-1068.78
4112385	-1063.69
4114433	-1077.46
4116481	-1058.48
4118529	-1091.72
4120577	-1077.03
4122625	-1056.77
4124673	-1057.05
4126721	-1069.48
4128769	-1056.73
4130817	-1063.37
4132865	-1067.51
4134913	-1050.26
4136961	-1037.06
4139009	-1044.86
4141057	-1065.32
4143105	-1046.47
4145153	-1060.03
4147201	-1060.03
4149249	-1071
4151297	-1087.18
4153345	-1109.65
4155393	-1087.61
4157441	-1063.05
4159489	-1051.11
4161537	-1057.24
4163585	-1076.27
4165633	-1077.84
4167681	-1115.55
4169729	-1073.6
4171777	-1072.14
4173825	-1069.35
4175873	-1069.53
4177921	-1074.77
4179969	-1063.12
4182017	-1066.01
4184065	-1059.74
4186113	-1066.61
4188161	-1062.62
4190209	-1060.35
4192257	-1044.88
4194305	-1042.16
4196353	-1058.23
4198401	-1058.97
4200449	-1061.74
4202497	-1069.28
4204545	-1068.81
4206593	-1075.09
4208641	-1059.09
4210689	-1067.99
4212737	-1069.97
4214785	-1064.76
4216833	-1076.26
4218881	-1079.18
4220929	-1072.16
4222977	-1101.21
4225025	-1062.34
4227073	-1072.86
4229121	-1065.18
4231169	-1048.18
4233217	-1064.57
4235265	-1074.76
4237313	-1074.98
4239361	-1076.79
4241409	-1088.6
4243457	-1050.55
4245505	-1062.19
4247553	-1091.98
4249601	-1097.63
4251649	-1095.99
4253697	-1101.48
4255745	-1070.02
4257793	-1075.59
4259841	-1066.38
4261889	-1058.38
4263937	-1084.71
4265985	-1068.37
4268033	-1064.91
4270081	-1062.3
4272129	-1073.82
4274177	-1087.75
4276225	-1059.07
4278273	-1031.7
4280321	-1052.73
4282369	-1068.34
4284417	-1048.29
4286465	-1081.74
4288513	-1059.69
4290561	-1062.41
4292609	-1063.16
4294657	-1057.44
4296705	-1056.53
4298753	-1063.02
4300801	-1080.4
4302849	-1069.81
4304897	-1072.98
4306945	-1062.57
4308993	-1086.64
4311041	-1080.29
4313089	-1077.35
4315137	-1124.3
4317185	-1098.88
4319233	-1096.39
4321281	-1074.84
4323329	-1064.13
4325377	-1069.04
4327425	-1078.78
4329473	-1064.8
4331521	-1060.83
4333569	-1089.54
4335617	-1064.2
4337665	-1094.59
4339713	-1074.13
4341761	-1065.14
4343809	-1074.28
4345857	-1083.75
4347905	-1042.39
4349953	-1040.58
4352001	-1055.37
4354049	-1093.75
4356097	-1098.57
4358145	-1089.21
4360193	-1119.38
4362241	-1103.18
4364289	-1087.98
4366337	-1097.88
4368385	-1115
4370433	-1109.44
4372481	-1085.77
4374529	-1086.79
4376577	-1093.42
4378625	-1083.03
4380673	-1079.47
4382721	-1086.05
4384769	-1077.69
4386817	-1108.32
4388865	-1101.84
4390913	-1081.28
4392961	-1097.66
4395009	-1050.85
4397057	-1048.07
4399105	-1065.45
4401153	-1077.48
4403201	-1064.42
4405249	-1063.76
4407297	-1057.97
4409345	-1038.39
4411393	-1052.23
4413441	-1075.83
4415489	-1102.1
4417537	-1091.95
4419585	-1077.21
4421633	-1076.25
4423681	-1054.41
4425729	-1063.91
4427777	-1086.84
4429825	-1083.15
4431873	-1082.09
4433921	-1078.55
4435969	-1092.45
4438017	-1099.59
4440065	-1109.89
4442113	-1089.3
4444161	-1071.19
4446209	-1076.7
4448257	-1054.58
4450305	-1053.98
4452353	-1076.93
4454401	-1083.46
4456449	-1080.45
4458497	-1079.07
4460545	-1054.8
4462593	-1069.71
4464641	-1071.52
4466689	-1078.25
4468737	-1080.07
4470785	-1096.15
4472833	-1106.9
4474881	-1084.79
4476929	-1101.31
4478977	-1080.98
4481025	-1103.33
4483073	-1091.95
4485121	-1081.09
4487169	-1087.26
4489217	-1107.68
4491265	-1071.68
4493313	-1076.4
4495361	-1059.31
4497409	-1084.49
4499457	-1099.68
4501505	-1082.46
4503553	-1099.05
4505601	-1088.99
4507649	-1107.43
4509697	-1084.3
4511745	-1084.1
4513793	-1108.72
4515841	-1063.6
4517889	-1085.27
4519937	-1088.3
4521985	-1057.43
4524033	-1077.38
4526081	-1088.83
4528129	-1085.36
4530177	-1083.95
4532225	-1095.87
4534273	-1090.4
4536321	-1070.63
4538369	-1071.89
4540417	-1084.24
4542465	-1063.44
4544513	-1053.08
4546561	-1057.01
4548609	-1036.51
4550657	-1032.4
4552705	-1053.34
4554753	-1070.73
4556801	-1060.36
4558849	-1080.56
4560897	-1062.01
4562945	-1099.21
4564993	-1093.22
4567041	-1113.47
4569089	-1070.42
4571137	-1113.57
4573185	-1097.88
4575233	-1096.39
4577281	-1110.93
4579329	-1116.4
4581377	-1091.66
4583425	-1099.7
4585473	-1065.23
4587521	-1055.79
4589569	-1043.46
4591617	-1062.7
4593665	-1052.95
4595713	-1064.85
4597761	-1034.41
4599809	-1032.53
4601857	-1048.81
4603905	-1065.96
4605953	-1064.82
4608001	-1073.99
4610049	-1089.37
4612097	-1090.78
4614145	-1098.11
4616193	-1104.01
4618241	-1105.66
4620289	-1096.11
4622337	-1118.03
4624385	-1095.65
4626433	-1086.4
4628481	-1075.26
4630529	-1099.72
4632577	-1060.93
4634625	-1102.63
4636673	-1062.43
4638721	-1067.43
4640769	-1061.04
4642817	-1083.12
4644865	-1083.43
4646913	-1095.07
4648961	-1085.89
4651009	-1065.5
4653057	-1094.86
4655105	-1101.31
4657153	-1111.27
4659201	-1110.81
4661249	-1117.89
4663297	-1156.01
4665345	-1132.76
4667393	-1121.42
4669441	-1113.89
4671489	-1124.6
4673537	-1116.55
4675585	-1105.02
4677633	-1126.66
4679681	-1125.52
4681729	-1130.81
4683777	-1146.01
4685825	-1148.15
4687873	-1136.2
4689921	-1127.26
4691969	-1119.96
4694017	-1133.76
4696065	-1113.94
4698113	-1111.31
4700161	-1113.91
4702209	-1110.1
4704257	-1092.6
4706305	-1106.44
4708353	-1105.8
4710401	-1102.41
4712449	-1117.12
4714497	-1103.69
4716545	-1085.05
4718593	-1089.53
4720641	-1070
4722689	-1067.27
4724737	-1060.95
4726785	-1055.43
4728833	-1038.3
4730881	-1065.31
4732929	-1070.61
4734977	-1088.87
4737025	-1065.51
4739073	-1058.76
4741121	-1074.5
4743169	-1067.8
4745217	-1086.16
4747265	-1084.72
4749313	-1078.38
4751361	-1080.82
4753409	-1082.14
4755457	-1108.58
4757505	-1094.23
4759553	-1084.44
4761601	-1109.35
4763649	-1069.88
4765697	-1039.68
4767745	-1069.21
4769793	-1076.44
4771841	-1071
4773889	-1086.35
4775937	-1097.9
4777985	-1073.01
4780033	-1111.78
4782081	-1057
4784129	-1099.61
4786177	-1094.85
4788225	-1103.07
4790273	-1098.41
4792321	-1080.49
4794369	-1085.56
4796417	-1073.34
4798465	-1065.14
4800513	-1068.66
4802561	-1078.44
4804609	-1084.45
4806657	-1061.9
4808705	-1068.71
4810753	-1054.55
4812801	-1082.69
4814849	-1077.89
4816897	-1104.59
4818945	-1117.31
4820993	-1095.1
4823041	-1085.05
4825089	-1084.47
4827137	-1093.86
4829185	-1093.02
4831233	-1105.78
4833281	-1104.5
4835329	-1083.95
4837377	-1084.55
4839425	-1098.38
4841473	-1079.05
4843521	-1108.66
4845569	-1094.16
4847617	-1106.17
4849665	-1085.74
4851713	-1097.69
4853761	-1080.74
4855809	-1105
4857857	-1122.87
4859905	-1139.38
4861953	-1110.19
4864001	-1124.32
4866049	-1106.86
4868097	-1113.31
4870145	-1116.11
4872193	-1114.56
4874241	-1112.13
4876289	-1127.39
4878337	-1128.4
4880385	-1110.83
4882433	-1125.08
4884481	-1117.46
4886529	-1123.38
4888577	-1119.32
4890625	-1111.15
4892673	-1086.92
4894721	-1096.76
4896769	-1132.21
4898817	-1107.88
4900865	-1118.75
4902913	-1137.89
4904961	-1120.7
4907009	-1124.03
4909057	-1132.01
4911105	-1147.9
4913153	-1149.74
4915201	-1167.75
4917249	-1155.65
4919297	-1150.65
4921345	-1124.63
4923393	-1154.7
4925441	-1141.09
4927489	-1134.92
4929537	-1120.25
4931585	-1091.97
4933633	-1095.93
4935681	-1106.44
4937729	-1112.52
4939777	-1095.58
4941825	-1084.89
4943873	-1110.38
4945921	-1115.27
4947969	-1121.24
4950017	-1138.15
4952065	-1119.72
4954113	-1139.85
4956161	-1158
4958209	-1115.71
4960257	-1145.31
4962305	-1117.53
4964353	-1112.84
4966401	-1120.77
4968449	-1112.48
4970497	-1129.09
4972545	-1109.8
4974593	-1107.28
4976641	-1121.27
4978689	-1155
4980737	-1151.82
4982785	-1127.57
4984833	-1129.91
4986881	-1156.39
4988929	-1136.01
4990977	-1136.77
4993025	-1154.23
4995073	-1169.77
4997121	-1153.01
4999169	-1148.22
5001217	-1142.37
5003265	-1125.58
5005313	-1149.21
5007361	-1146.33
5009409	-1110.32
5011457	-1093.16
5013505	-1083.47
5015553	-1049.73
5017601	-1058.55
5019649	-1032.05
5021697	-1048.8
5023745	-1034.05
5025793	-1041.74
5027841	-1039.62
5029889	-1075.35
5031937	-1082.59
5033985	-1060.89
5036033	-1048.98
5038081	-1046.36
5040129	-1039.53
5042177	-1072.27
5044225	-1066.49
5046273	-1037.98
5048321	-1096.37
5050369	-1118.09
5052417	-1117.15
5054465	-1132.66
5056513	-1091.93
5058561	-1100.07
5060609	-1096.44
5062657	-1071.79
5064705	-1068.85
5066753	-1060.59
5068801	-1048.53
5070849	-1046.81
5072897	-1047.77
5074945	-1053.54
5076993	-1048.95
5079041	-1041.71
5081089	-1057.87
5083137	-1056.28
5085185	-1064.89
5087233	-1066.55
5089281	-1090.35
5091329	-1078.7
5093377	-1057.72
5095425	-1071
5097473	-1044.33
5099521	-1080.01
5101569	-1054.25
5103617	-1068.64
5105665	-1058.7
5107713	-1055.92
5109761	-1021.45
5111809	-1047.71
5113857	-1026.45
5115905	-1032.24
5117953	-1032.37
5120001	-1073.8
5122049	-1073.31
5124097	-1053.33
5126145	-1051.39
5128193	-1019.78
5130241	-1036.73
5132289	-1011.34
5134337	-1056.49
5136385	-1052.18
5138433	-1048.56
5140481	-1059.26
5142529	-1068.51
5144577	-1086.39
5146625	-1052.17
5148673	-1066.43
5150721	-1084.21
5152769	-1092.74
5154817	-1081.81
5156865	-1060.83
5158913	-1056.11
5160961	-1058.82
5163009	-1034.54
5165057	-1070.92
5167105	-1028.24
5169153	-1011.27
5171201	-1035.09
5173249	-1035.92
5175297	-1083.22
5177345	-1057.2
5179393	-1058.05
5181441	-1038.87
5183489	-1034.57
5185537	-1059.75
5187585	-1078
5189633	-1046.09
5191681	-1056.24
5193729	-1058.19
5195777	-1062.92
5197825	-1048.84
5199873	-1049.73
5201921	-1061.46
5203969	-1050.03
5206017	-1051.85
5208065	-1032.85
5210113	-1067.74
5212161	-1050.99
5214209	-1045.95
5216257	-1047.34
5218305	-1068.72
5220353	-1103.1
5222401	-1087.55
5224449	-1087.99
5226497	-1094.79
5228545	-1088.85
5230593	-1103.64
5232641	-1060.79
5234689	-1082.63
5236737	-1071.83
5238785	-1111.54
5240833	-1092.44
5242881	-1062.19
5244929	-1080.7
5246977	-1079.89
5249025	-1099.21
5251073	-1103.14
5253121	-1080.39
5255169	-1089.08
5257217	-1081.37
5259265	-1073.5
5261313	-1066.82
5263361	-1094.88
5265409	-1087.67
5267457	-1091.42
5269505	-1077.71
5271553	-1093.39
5273601	-1095.52
5275649	-1105.99
5277697	-1093.74
5279745	-1035.88
5281793	-1017.59
5283841	-1054.08
5285889	-1060.28
5287937	-1073.27
5289985	-1067.2
5292033	-1057.4
5294081	-1061.23
5296129	-1075.04
5298177	-1056.54
5300225	-1045.1
5302273	-1057.39
5304321	-1059.5
5306369	-1054.59
5308417	-1051.39
5310465	-1040.65
5312513	-1051.08
5314561	-1069.62
5316609	-1068.73
5318657	-1059.25
5320705	-1054.43
5322753	-1093.3
5324801	-1097.91
5326849	-1107.16
5328897	-1085.88
5330945	-1075.62
5332993	-1059.39
5335041	-1111.77
5337089	-1090.95
5339137	-1067.87
5341185	-1086.5
5343233	-1076.12
5345281	-1062.06
5347329	-1044.6
5349377	-1043.44
5351425	-1038.61
5353473	-1040.97
5355521	-1035.15
5357569	-1016.09
5359617	-1045.77
5361665	-1054.45
5363713	-1048.28
5365761	-1028.5
5367809	-1073.83
5369857	-1055.86
5371905	-1053.74
5373953	-1043.29
5376001	-1043.43
5378049	-1056.25
5380097	-1058.66
5382145	-1071.03
5384193	-1080
5386241	-1080.52
5388289	-1079.27
5390337	-1081.23
5392385	-1060.92
5394433	-1056.16
5396481	-1062.76
5398529	-1082.5
5400577	-1080.48
5402625	-1097.77
5404673	-1099.98
5406721	-1099.8
5408769	-1131.5
5410817	-1124.33
5412865	-1124.63
5414913	-1118.33
5416961	-1091.31
5419009	-1061.91
5421057	-1076.72
5423105	-1067.73
5425153	-1081.02
5427201	-1064.83
5429249	-1053.36
5431297	-1062.06
5433345	-1050.26
5435393	-1083.09
5437441	-1075.37
5439489	-1053.03
5441537	-1059.49
5443585	-1070.38
5445633	-1069.9
5447681	-1093.98
5449729	-1042.15
5451777	-1037.87
5453825	-1025.68
5455873	-1058.63
5457921	-1055.86
5459969	-1057.31
5462017	-1043.86
5464065	-1043.83
5466113	-1053.21
5468161	-1037.39
5470209	-1036.62
5472257	-1010.83
5474305	-1062.53
5476353	-1058.59
5478401	-1048.52
5480449	-1069.62
5482497	-1043.86
5484545	-1057.57
5486593	-1051.62
5488641	-1061.17
5490689	-1087.22
5492737	-1070.42
5494785	-1069.94
5496833	-1081.65
5498881	-1075.92
5500929	-1076.05
5502977	-1071.99
5505025	-1036.99
5507073	-1043.02
5509121	-1061.58
5511169	-1065.92
5513217	-1041.26
5515265	-1056.57
5517313	-1055.44
5519361	-1077.07
5521409	-1059.34
5523457	-1071.1
5525505	-1045.25
5527553	-1093.9
5529601	-1093.01
5531649	-1061.05
5533697	-1049.83
5535745	-1040.77
5537793	-1046.24
5539841	-1074.44
5541889	-1065.14
5543937	-1077.8
5545985	-1074.26
5548033	-1080.41
5550081	-1078.36
5552129	-1088.86
5554177	-1113.17
5556225	-1107.22
5558273	-1091.89
5560321	-1108.32
5562369	-1095.38
5564417	-1108.74
5566465	-1107.55
5568513	-1111.34
5570561	-1112.04
5572609	-1108.7
5574657	-1126.03
5576705	-1142.12
5578753	-1158.69
5580801	-1148.87
5582849	-1118.24
5584897	-1105.03
5586945	-1104.53
5588993	-1100.63
5591041	-1075.29
5593089	-1063.14
5595137	-1055.11
5597185	-1059.85
5599233	-1093.5
5601281	-1089.61
5603329	-1094.42
5605377	-1083.52
5607425	-1090.83
5609473	-1125.39
5611521	-1104.84
5613569	-1103.53
5615617	-1089.51
5617665	-1074.52
5619713	-1056.82
5621761	-1076.62
5623809	-1090.59
5625857	-1098.77
5627905	-1084.58
5629953	-1065
5632001	-1070.44
5634049	-1064.8
5636097	-1072.15
5638145	-1089.27
5640193	-1066.52
5642241	-1080.35
5644289	-1111.26
5646337	-1091.41
5648385	-1100.85
5650433	-1083.07
5652481	-1109.63
5654529	-1115.28
5656577	-1082.98
5658625	-1101.15
5660673	-1089.58
5662721	-1058.16
5664769	-1066.28
5666817	-1042.08
5668865	-1066.58
5670913	-1085.19
5672961	-1075.62
5675009	-1093.17
5677057	-1099.67
5679105	-1096.71
5681153	-1085.89
5683201	-1095.67
5685249	-1091.8
5687297	-1104.58
5689345	-1107.17
5691393	-1095.13
5693441	-1065.9
5695489	-1051.87
5697537	-1090.48
5699585	-1106.74
5701633	-1097.15
5703681	-1086.32
5705729	-1098.07
5707777	-1071.62
5709825	-1077.77
5711873	-1051.68
5713921	-1075.52
5715969	-1040.2
5718017	-1067.7
5720065	-1081.33
5722113	-1080.43
5724161	-1061.45
5726209	-1081.83
5728257	-1078.84
5730305	-1087.14
5732353	-1084.8
5734401	-1106.84
5736449	-1071.99
5738497	-1101.5
5740545	-1110.2
5742593	-1050.28
5744641	-1073.33
5746689	-1064.71
5748737	-1090.42
5750785	-1100.79
5752833	-1077.37
5754881	-1071.38
5756929	-1050.47
5758977	-1044.44
5761025	-1067.51
5763073	-1052.89
5765121	-1051.59
5767169	-1057.52
5769217	-1081.58
5771265	-1073.99
5773313	-1090.88
5775361	-1096.67
5777409	-1092.17
5779457	-1085.59
5781505	-1090.61
5783553	-1088.85
5785601	-1093.5
5787649	-1083.51
5789697	-1100.93
5791745	-1090.39
5793793	-1081.35
5795841	-1107.05
5797889	-1138.74
5799937	-1129.42
5801985	-1114.95
5804033	-1097.21
5806081	-1097.8
5808129	-1068.62
5810177	-1076.85
5812225	-1051.98
5814273	-1050.08
5816321	-1044.62
5818369	-1059.95
5820417	-1071.06
5822465	-1075.12
5824513	-1061.26
5826561	-1071.43
5828609	-1042.05
5830657	-1031.9
5832705	-1054.71
5834753	-1042.85
5836801	-1045.21
5838849	-1059.46
5840897	-1071.82
5842945	-1083.46
5844993	-1073.09
5847041	-1061.22
5849089	-1053.1
5851137	-1074.57
5853185	-1057.92
5855233	-1063.68
5857281	-1069.17
5859329	-1074.43
5861377	-1057.91
5863425	-1071.8
5865473	-1055.36
5867521	-1058.45
5869569	-1041.52
5871617	-1065.57
5873665	-1064.26
5875713	-1050.09
5877761	-1063.67
5879809	-1063.82
5881857	-1059.02
5883905	-1091.35
5885953	-1077.44
5888001	-1092.08
5890049	-1064.61
5892097	-1058.03
5894145	-1069.93
5896193	-1070.98
5898241	-1075.8
5900289	-1056.89
5902337	-1076.49
5904385	-1064.19
5906433	-1064.76
5908481	-1088.82
5910529	-1093.51
5912577	-1097.36
5914625	-1076.13
5916673	-1064.06
5918721	-1066.33
5920769	-1061.92
5922817	-1087.77
5924865	-1109.53
5926913	-1095.4
5928961	-1076.24
5931009	-1085.73
5933057	-1073.64
5935105	-1109.85
5937153	-1072.03
5939201	-1107.03
5941249	-1088.04
5943297	-1093.64
5945345	-1095.05
5947393	-1082.12
5949441	-1060.2
5951489	-1063.05
5953537	-1033.71
5955585	-1049.45
5957633	-1033.74
5959681	-1064.78
5961729	-1080.92
5963777	-1062.4
5965825	-1042.79
5967873	-1037.03
5969921	-1056.58
5971969	-1063.29
5974017	-1061.7
5976065	-1085.34
5978113	-1091.32
5980161	-1085.85
5982209	-1061.65
5984257	-1098.77
5986305	-1063.64
5988353	-1103.28
5990401	-1095.95
5992449	-1117.02
5994497	-1094.14
5996545	-1101.82
5998593	-1090.85
6000641	-1117.26
6002689	-1098.62
6004737	-1098.88
6006785	-1111.4
6008833	-1106.54
6010881	-1110.01
6012929	-1086.82
6014977	-1080.7
6017025	-1092.96
6019073	-1088.29
6021121	-1074.65
6023169	-1059.37
6025217	-1095.98
6027265	-1067.38
6029313	-1095.81
6031361	-1077.29
6033409	-1094.38
6035457	-1087.62
6037505	-1079.68
6039553	-1081.61
6041601	-1075.17
6043649	-1096.03
6045697	-1088.12
6047745	-1083.73
6049793	-1071.89
6051841	-1073.06
6053889	-1076.06
6055937	-1062.05
6057985	-1068.71
6060033	-1057.63
6062081	-1068.56
6064129	-1084.05
6066177	-1086.58
6068225	-1059.96
6070273	-1061.82
6072321	-1063.2
6074369	-1082.44
6076417	-1060.94
6078465	-1032.51
6080513	-1050.15
6082561	-1030.71
6084609	-1001.55
6086657	-1036.72
6088705	-1043.34
6090753	-1032.21
6092801	-1048.5
6094849	-1038.31
6096897	-1059.37
6098945	-1074.33
6100993	-1108.09
6103041	-1098.98
6105089	-1110.42
6107137	-1102.29
6109185	-1145.12
6111233	-1122.97
6113281	-1104.66
6115329	-1102.44
6117377	-1095.36
6119425	-1108.49
6121473	-1097.41
6123521	-1077.59
6125569	-1099.05
6127617	-1087.11
6129665	-1086.57
6131713	-1085.28
6133761	-1110.42
6135809	-1126.36
6137857	-1135
6139905	-1161.14
6141953	-1131.96
6144001	-1117.66
6146049	-1108.35
6148097	-1097.56
6150145	-1108.8
6152193	-1109.09
6154241	-1096.92
6156289	-1103.19
6158337	-1102.89
6160385	-1093.06
6162433	-1095.88
6164481	-1095.12
6166529	-1106.4
6168577	-1134
6170625	-1096.06
6172673	-1102.21
6174721	-1096.24
6176769	-1098.14
6178817	-1114.92
6180865	-1113.72
6182913	-1091.26
6184961	-1097.89
6187009	-1082.94
6189057	-1092.04
6191105	-1079.97
6193153	-1090.93
6195201	-1083.4
6197249	-1062.95
6199297	-1076.82
6201345	-1073
6203393	-1079.88
6205441	-1094.6
6207489	-1090.69
6209537	-1104.8
6211585	-1117.75
6213633	-1102.28
6215681	-1100.29
6217729	-1093.41
6219777	-1106.76
6221825	-1082.94
6223873	-1105.66
6225921	-1092.73
6227969	-1121.4
6230017	-1095.66
6232065	-1083.44
6234113	-1084.17
6236161	-1069.57
6238209	-1080.87
6240257	-1060.24
6242305	-1094.45
6244353	-1079.01
6246401	-1083.2
6248449	-1097.49
6250497	-1104.7
6252545	-1081.28
6254593	-1113.65
6256641	-1120.38
6258689	-1150.09
6260737	-1139.04
6262785	-1154
6264833	-1117.4
6266881	-1112.96
6268929	-1120.15
6270977	-1122.03
6273025	-1111.37
6275073	-1116.53
6277121	-1090.19
6279169	-1084.23
6281217	-1070.31
6283265	-1085.02
6285313	-1096.42
6287361	-1073.98
6289409	-1084.91
6291457	-1097.69
6293505	-1106.59
6295553	-1108.35
6297601	-1098.73
6299649	-1090.24
6301697	-1100.09
6303745	-1088.22
6305793	-1053.89
6307841	-1030.1
6309889	-1064.3
6311937	-1095.25
6313985	-1077.11
6316033	-1085.8
6318081	-1082.41
6320129	-1096.65
6322177	-1102.48
6324225	-1088.8
6326273	-1082.03
6328321	-1085.19
6330369	-1111.06
6332417	-1080.84
6334465	-1071.24
6336513	-1067.3
6338561	-1089.38
6340609	-1069.79
6342657	-1109.81
6344705	-1102.78
6346753	-1093.62
6348801	-1046.12
6350849	-1086.04
6352897	-1054.73
6354945	-1066.01
6356993	-1063.67
6359041	-1077.6
6361089	-1082.3
6363137	-1074.8
6365185	-1112.13
6367233	-1118.67
6369281	-1140.95
6371329	-1111.57
6373377	-1108.16
6375425	-1092.8
6377473	-1083.58
6379521	-1068.69
6381569	-1070.4
6383617	-1084.18
6385665	-1077.47
6387713	-1067.07
6389761	-1052.92
6391809	-1048.05
6393857	-1046.65
6395905	-1038.07
6397953	-1028.85
6400001	-1057.62
6402049	-1032.96
6404097	-1066.73
6406145	-1073.3
6408193	-1065.26
6410241	-1061.16
6412289	-1079.19
6414337	-1100.38
6416385	-1075.52
6418433	-1095.28
6420481	-1067.34
6422529	-1067.77
6424577	-1057.49
6426625	-1074.59
6428673	-1096.55
6430721	-1086.96
6432769	-1088.63
6434817	-1122.71
6436865	-1101.46
6438913	-1102.61
6440961	-1107.53
6443009	-1093.74
6445057	-1060.38
6447105	-1040.57
6449153	-1072.25
6451201	-1096.81
6453249	-1069.94
6455297	-1107.44
6457345	-1091.69
6459393	-1095.87
6461441	-1120.14
6463489	-1105.56
6465537	-1093.06
6467585	-1071.57
6469633	-1058.97
6471681	-1076.18
6473729	-1101.89
6475777	-1088.41
6477825	-1097.66
6479873	-1092.86
6481921	-1103.99
6483969	-1077.65
6486017	-1098.38
6488065	-1052.45
6490113	-1085.93
6492161	-1055.91
6494209	-1068.7
6496257	-1096.41
6498305	-1082.61
6500353	-1089.36
6502401	-1081.39
6504449	-1079.01
6506497	-1094.99
6508545	-1073.51
6510593	-1085.59
6512641	-1089.89
6514689	-1069.69
6516737	-1079.87
6518785	-1067.96
6520833	-1044.31
6522881	-1050.65
6524929	-1069.15
6526977	-1089.33
6529025	-1071.94
6531073	-1076.93
6533121	-1074.7
6535169	-1087.22
6537217	-1088.16
6539265	-1084.43
6541313	-1089.79
6543361	-1076.33
6545409	-1081.96
6547457	-1091.65
6549505	-1063.14
6551553	-1095.9
6553601	-1067.1
6555649	-1070.69
6557697	-1081.65
6559745	-1081.68
6561793	-1099.87
6563841	-1106.62
6565889	-1110.67
6567937	-1094.76
6569985	-1079.67
6572033	-1100.26
6574081	-1100.52
6576129	-1099.91
6578177	-1081.72
6580225	-1103.89
6582273	-1084.48
6584321	-1081.81
6586369	-1072.88
6588417	-1065.74
6590465	-1071.88
6592513	-1079.41
6594561	-1089.71
6596609	-1063.06
6598657	-1062.96
6600705	-1079.74
6602753	-1066.4
6604801	-1076.8
6606849	-1067.85
6608897	-1081.7
6610945	-1091.25
6612993	-1095.78
6615041	-1111.2
6617089	-1106.64
6619137	-1117.77
6621185	-1096.44
6623233	-1091.59
6625281	-1122.94
6627329	-1116.04
6629377	-1113.59
6631425	-1097.67
6633473	-1097.08
6635521	-1113.17
6637569	-1078.57
6639617	-1070.19
6641665	-1100.53
6643713	-1083.07
6645761	-1068.67
6647809	-1085.8
6649857	-1078.88
6651905	-1092.53
6653953	-1067.03
6656001	-1059.01
6658049	-1067.35
6660097	-1058.76
6662145	-1065.04
6664193	-1087.21
6666241	-1098.21
6668289	-1106.48
6670337	-1086.9
6672385	-1086.84
6674433	-1092.41
6676481	-1088.49
6678529	-1082.52
6680577	-1092.25
6682625	-1085.3
6684673	-1094
6686721	-1107.2
6688769	-1106.91
6690817	-1095.26
6692865	-1123.65
6694913	-1139.37
6696961	-1120.34
6699009	-1089.88
6701057	-1112.22
6703105	-1104.82
6705153	-1087.49
6707201	-1103.92
6709249	-1084.71
6711297	-1093.32
6713345	-1080.85
6715393	-1101.08
6717441	-1068.31
6719489	-1042.1
6721537	-1068.4
6723585	-1056.9
6725633	-1050.17
6727681	-1060.45
6729729	-1046.95
6731777	-1040.93
6733825	-1025.4
6735873	-1037.68
6737921	-1035.96
6739969	-1036.1
6742017	-1041.56
6744065	-1029.73
6746113	-1041.97
6748161	-1041.85
6750209	-1035.5
6752257	-1037.55
6754305	-1056.13
6756353	-1063.05
6758401	-1065.21
6760449	-1054.73
6762497	-1082.73
6764545	-1050.86
6766593	-1040.37
6768641	-1071.29
6770689	-1035.96
6772737	-1053.34
6774785	-1071.73
6776833	-1085.38
6778881	-1076.69
6780929	-1091.94
6782977	-1087.08
6785025	-1070.51
6787073	-1087.55
6789121	-1066.93
6791169	-1092.99
6793217	-1089.47
6795265	-1057.54
6797313	-1092.2
6799361	-1081.55
6801409	-1087.63
6803457	-1025.05
6805505	-1030.97
6807553	-1014.11
6809601	-1016.68
6811649	-1035.44
6813697	-1052.15
6815745	-1046.96
6817793	-1067.66
6819841	-1050.62
6821889	-1037.35
6823937	-1068.88
6825985	-1057.3
6828033	-1038.98
6830081	-1053.79
6832129	-1048.49
6834177	-1028.45
6836225	-1049.93
6838273	-1017.48
6840321	-1071.48
6842369	-1073.83
6844417	-1065.56
6846465	-1065.03
6848513	-1081.17
6850561	-1066.84
6852609	-1061.22
6854657	-1070.83
6856705	-1051.99
6858753	-1057.16
6860801	-1050.83
6862849	-1061.22
6864897	-1067.68
6866945	-1056.93
6868993	-1064.2
6871041	-1038.46
6873089	-1049.54
6875137	-1035.49
6877185	-1034.66
6879233	-1032.44
6881281	-1054.72
6883329	-1043.03
6885377	-1054.71
6887425	-1077.01
6889473	-1060.17
6891521	-1067.45
6893569	-1087.21
6895617	-1078.99
6897665	-1083.39
6899713	-1070.67
6901761	-1099.92
6903809	-1083.5
6905857	-1084.98
6907905	-1074.66
6909953	-1083.4
6912001	-1059.86
6914049	-1075.04
6916097	-1055.82
6918145	-1073.54
6920193	-1071.78
6922241	-1092.84
6924289	-1067.62
6926337	-1072.76
6928385	-1075.52
6930433	-1089.93
6932481	-1081.54
6934529	-1081.75
6936577	-1107.78
6938625	-1124.68
6940673	-1107.79
6942721	-1095.25
6944769	-1099.04
6946817	-1089.07
6948865	-1073.6
6950913	-1057.99
6952961	-1052.89
6955009	-1048.94
6957057	-1035.95
6959105	-1037.82
6961153	-1044.82
6963201	-1063.06
6965249	-1065.72
6967297	-1060.42
6969345	-1079.62
6971393	-1093.9
6973441	-1088.53
6975489	-1063.55
6977537	-1087.76
6979585	-1101.9
6981633	-1057.9
6983681	-1079.05
6985729	-1070.04
6987777	-1065.27
6989825	-1094.53
6991873	-1106.29
6993921	-1078.85
6995969	-1077.11
6998017	-1076.65
7000065	-1088.93
7002113	-1091.32
7004161	-1077.37
7006209	-1074.73
7008257	-1063.99
7010305	-1059.59
7012353	-1026.8
7014401	-1068.37
7016449	-1078.78
7018497	-1055.05
7020545	-1065.34
7022593	-1080.12
7024641	-1071.25
7026689	-1067.44
7028737	-1072.49
7030785	-1072.96
7032833	-1089.34
7034881	-1074.03
7036929	-1072.46
7038977	-1086.68
7041025	-1060.01
7043073	-1078.57
7045121	-1091.31
7047169	-1084.37
7049217	-1077.61
7051265	-1079.86
7053313	-1107.57
7055361	-1091.75
7057409	-1101.72
7059457	-1109.87
7061505	-1095.33
7063553	-1105.22
7065601	-1106.94
7067649	-1111.56
7069697	-1118.48
7071745	-1116.38
7073793	-1080.28
7075841	-1065.75
7077889	-1080.78
7079937	-1072.86
7081985	-1067.49
7084033	-1081.59
7086081	-1088.17
7088129	-1066.18
7090177	-1054.7
7092225	-1085.9
7094273	-1068.22
7096321	-1082.72
7098369	-1085.84
7100417	-1129.49
7102465	-1132.66
7104513	-1116.9
7106561	-1110.7
7108609	-1124.2
7110657	-1100.57
7112705	-1113.95
7114753	-1097.3
7116801	-1067.57
7118849	-1073.11
7120897	-1080.6
7122945	-1085.29
7124993	-1076.83
7127041	-1067.68
7129089	-1071.52
7131137	-1101.38
7133185	-1070.35
7135233	-1113.25
7137281	-1085.47
7139329	-1075.78
7141377	-1085.43
7143425	-1100.18
7145473	-1086.74
7147521	-1102.85
7149569	-1065.6
7151617	-1050.68
7153665	-1033.38
7155713	-1068.8
7157761	-1047.15
7159809	-1045.37
7161857	-1039.63
7163905	-1056.96
7165953	-1069.33
7168001	-1066.59
7170049	-1058.75
7172097	-1033.94
7174145	-1039.52
7176193	-1018.5
7178241	-1054.24
7180289	-1029.31
7182337	-1046.23
7184385	-1046.59
7186433	-1059.24
7188481	-1060.86
7190529	-1005.77
7192577	-1043.13
7194625	-1045.42
7196673	-1072.03
7198721	-1046.92
7200769	-1071.66
7202817	-1048.81
7204865	-1072.58
7206913	-1054.33
7208961	-1045.58
7211009	-1033.75
7213057	-1050.85
7215105	-1057.79
7217153	-1058.05
7219201	-1062.52
7221249	-1046.19
7223297	-1051.7
7225345	-1053.83
7227393	-1047.92
7229441	-1058.79
7231489	-1050.39
7233537	-1047.45
7235585	-1050.37
7237633	-1023.19
7239681	-1069.61
7241729	-1018.91
7243777	-1028.86
7245825	-1049.56
7247873	-1054.21
7249921	-1041.23
7251969	-1038.75
7254017	-1057.13
7256065	-1046.84
7258113	-1077.6
7260161	-1052
7262209	-1065.39
7264257	-1067.21
7266305	-1097.29
7268353	-1090.62
7270401	-1108.88
7272449	-1091.23
7274497	-1088.08
7276545	-1110.65
7278593	-1118.55
7280641	-1098.06
7282689	-1103.68
7284737	-1061.34
7286785	-1116.41
7288833	-1084.46
7290881	-1089.13
7292929	-1077.6
7294977	-1066.94
7297025	-1083.28
7299073	-1081.65
7301121	-1091.18
7303169	-1084.6
7305217	-1097.14
7307265	-1097.74
7309313	-1083.5
7311361	-1080.49
7313409	-1084.63
7315457	-1060.15
7317505	-1092.33
7319553	-1090.13
7321601	-1099.81
7323649	-1110.59
7325697	-1113.16
7327745	-1097.56
7329793	-1077.28
7331841	-1111.73
7333889	-1095.42
7335937	-1100.73
7337985	-1103.67
7340033	-1109.26
7342081	-1106.17
7344129	-1077.05
7346177	-1095.13
7348225	-1112.89
7350273	-1092.46
7352321	-1109.78
7354369	-1091.3
7356417	-1102.65
7358465	-1081.08
7360513	-1069.98
7362561	-1068.08
7364609	-1084.04
7366657	-1096.93
7368705	-1085.9
7370753	-1094.87
7372801	-1101.08
7374849	-1074.17
7376897	-1106.49
7378945	-1131.04
7380993	-1119.3
7383041	-1106.35
7385089	-1123
7387137	-1113.25
7389185	-1110.15
7391233	-1078.63
7393281	-1066.39
7395329	-1071.1
7397377	-1059.23
7399425	-1060.96
7401473	-1069.42
7403521	-1065.57
7405569	-1058.3
7407617	-1109.04
7409665	-1117.48
7411713	-1104.13
7413761	-1093.13
7415809	-1088.45
7417857	-1104.7
7419905	-1105.07
7421953	-1098.41
7424001	-1085.04
7426049	-1052.85
7428097	-1081.61
7430145	-1076.9
7432193	-1084.09
7434241	-1093.53
7436289	-1097.01
7438337	-1101.74
7440385	-1113.39
7442433	-1103.62
7444481	-1099.88
7446529	-1082.69
7448577	-1067.9
7450625	-1063.67
7452673	-1057.84
7454721	-1052.74
7456769	-1054.5
7458817	-1064.85
7460865	-1033.28
7462913	-1042.33
7464961	-1035.55
7467009	-1063.86
7469057	-1064.72
7471105	-1051.45
7473153	-1057.57
7475201	-1053.95
7477249	-1068.76
7479297	-1072
7481345	-1071.32
7483393	-1090.95
7485441	-1079.71
7487489	-1097.54
7489537	-1105.13
7491585	-1112.53
7493633	-1097.63
7495681	-1085.75
7497729	-1088.76
7499777	-1086.6
7501825	-1083.32
7503873	-1067.89
7505921	-1061.59
7507969	-1062.5
7510017	-1046.83
7512065	-1040.39
7514113	-1060.15
7516161	-1078.36
7518209	-1044.01
7520257	-1057.3
7522305	-1066.55
7524353	-1072.54
7526401	-1084.52
7528449	-1081.16
7530497	-1083.92
7532545	-1063.38
7534593	-1055.76
7536641	-1074.13
7538689	-1051.52
7540737	-1054.78
7542785	-1051.47
7544833	-1067.67
7546881	-1065.17
7548929	-1065.98
7550977	-1093.98
7553025	-1102.13
7555073	-1080.55
7557121	-1074.23
7559169	-1070.04
7561217	-1062.13
7563265	-1063.47
7565313	-1087.28
7567361	-1049.13
7569409	-1086.19
7571457	-1081
7573505	-1098.52
7575553	-1100.43
7577601	-1096.15
7579649	-1082.22
7581697	-1077.41
7583745	-1075.97
7585793	-1075.18
7587841	-1079.48
7589889	-1084.8
7591937	-1070.44
7593985	-1093.84
7596033	-1089.93
7598081	-1076.24
7600129	-1078.78
7602177	-1080.18
7604225	-1112.32
7606273	-1127.89
7608321	-1120.45
7610369	-1110.6
7612417	-1105.06
7614465	-1093.38
7616513	-1079.14
7618561	-1067.16
7620609	-1066.43
7622657	-1068.05
7624705	-1074.18
7626753	-1099.63
7628801	-1091.04
7630849	-1082.97
7632897	-1056.26
7634945	-1075.44
7636993	-1075.95
7639041	-1079.19
7641089	-1093.01
7643137	-1107.36
7645185	-1083.78
7647233	-1118.74
7649281	-1120.87
7651329	-1121.48
7653377	-1129.12
7655425	-1115.17
7657473	-1106.35
7659521	-1134.64
7661569	-1119.42
7663617	-1108.34
7665665	-1103.03
7667713	-1096.82
7669761	-1094.11
7671809	-1084.33
7673857	-1084.6
7675905	-1069.91
7677953	-1054.52
7680001	-1070.65
7682049	-1066.57
7684097	-1080.75
7686145	-1062.24
7688193	-1104.13
7690241	-1084.99
7692289	-1077.86
7694337	-1082.95
7696385	-1081.73
7698433	-1089.76
7700481	-1086.11
7702529	-1091.79
7704577	-1092.43
7706625	-1083.15
7708673	-1087.46
7710721	-1097.65
7712769	-1088.23
7714817	-1100.63
7716865	-1110.95
7718913	-1133.29
7720961	-1153.88
7723009	-1133.5
7725057	-1110.86
7727105	-1126.67
7729153	-1109.26
7731201	-1109.12
7733249	-1103.79
7735297	-1099.76
7737345	-1065
7739393	-1068.34
7741441	-1061.88
7743489	-1014.17
7745537	-1065.2
7747585	-1037.08
7749633	-1051.23
7751681	-1062.32
7753729	-1065.99
7755777	-1047.04
7757825	-1060.76
7759873	-1042.79
7761921	-1059.98
7763969	-1064.56
7766017	-1052.26
7768065	-1064.02
7770113	-1101.54
7772161	-1075.32
7774209	-1091.49
7776257	-1087.8
7778305	-1110.44
7780353	-1114.08
7782401	-1106.67
7784449	-1059.69
7786497	-1076.8
7788545	-1070.38
7790593	-1078.44
7792641	-1075.1
7794689	-1075.53
7796737	-1102.01
7798785	-1123.95
7800833	-1103.51
7802881	-1110.8
7804929	-1097.49
7806977	-1064.3
7809025	-1068.73
7811073	-1064.67
7813121	-1090.67
7815169	-1064.35
7817217	-1065.31
7819265	-1054.67
7821313	-1054.84
7823361	-1060.21
7825409	-1060.28
7827457	-1050.33
7829505	-1078.87
7831553	-1069.41
7833601	-1051.8
7835649	-1067.64
7837697	-1087.01
7839745	-1060.58
7841793	-1063.84
7843841	-1067.72
7845889	-1095.58
7847937	-1066.7
7849985	-1065.13
7852033	-1070.62
7854081	-1085.74
7856129	-1062.44
7858177	-1058.84
7860225	-1055.56
7862273	-1064.84
7864321	-1057.25
7866369	-1092.75
7868417	-1085.82
7870465	-1073.18
7872513	-1073.05
7874561	-1077.47
7876609	-1054.53
7878657	-1043.71
7880705	-1062.79
7882753	-1066.99
7884801	-1061.52
7886849	-1055.62
7888897	-1034.25
7890945	-1048.35
7892993	-1064.73
7895041	-1046.59
7897089	-1051.68
7899137	-1046.82
7901185	-1034.56
7903233	-1044.35
7905281	-1023.41
7907329	-1011.2
7909377	-1046.73
7911425	-1027.28
7913473	-1028.83
7915521	-1061.14
7917569	-1050.79
7919617	-1042.49
7921665	-1016.96
7923713	-1078.37
7925761	-1060.9
7927809	-1081.46
7929857	-1087.61
7931905	-1071.02
7933953	-1077.31
7936001	-1086.79
7938049	-1077.13
7940097	-1075.32
7942145	-1040.87
7944193	-1064.83
7946241	-1070.87
7948289	-1058.04
7950337	-1092.88
7952385	-1096.92
7954433	-1068.73
7956481	-1052.53
7958529	-1047.43
7960577	-1048.95
7962625	-1028.82
7964673	-1043.74
7966721	-1056.22
7968769	-1066.31
7970817	-1051.07
7972865	-1040.75
7974913	-1039.89
7976961	-1058.51
7979009	-1043.98
7981057	-1045.17
7983105	-1046.08
7985153	-1058.25
7987201	-1054.14
7989249	-1040.18
7991297	-1077.71
7993345	-1069.53
7995393	-1062.87
7997441	-1073.83
7999489	-1083.14
8001537	-1071.33
8003585	-1091.15
8005633	-1062.51
8007681	-1084.28
8009729	-1093.02
8011777	-1087.66
8013825	-1055.41
8015873	-1091.49
8017921	-1093.14
8019969	-1051.44
8022017	-1058.16
8024065	-1074.27
8026113	-1079.61
8028161	-1082.54
8030209	-1082.36
8032257	-1101.57
8034305	-1121.42
8036353	-1101.86
8038401	-1088.41
8040449	-1079.93
8042497	-1079.21
8044545	-1079.67
8046593	-1102.51
8048641	-1102.71
8050689	-1111.58
8052737	-1117.1
8054785	-1114.91
8056833	-1104.35
8058881	-1094.15
8060929	-1126.37
8062977	-1091.8
8065025	-1118.09
8067073	-1088.57
8069121	-1113.03
8071169	-1105.58
8073217	-1119.52
8075265	-1092.69
8077313	-1120.61
8079361	-1097.71
8081409	-1098.08
8083457	-1079.17
8085505	-1101.01
8087553	-1088.06
8089601	-1086.96
8091649	-1110.58
8093697	-1118.36
8095745	-1100.46
8097793	-1093.21
8099841	-1092.51
8101889	-1107.89
8103937	-1104.94
8105985	-1092.45
8108033	-1078.52
8110081	-1074.32
8112129	-1089.76
8114177	-1106.92
8116225	-1110.37
8118273	-1090.46
8120321	-1085.11
8122369	-1070.05
8124417	-1076.8
8126465	-1089.6
8128513	-1075.86
8130561	-1081.72
8132609	-1106.22
8134657	-1099.53
8136705	-1104.79
8138753	-1118.14
8140801	-1109.9
8142849	-1115.39
8144897	-1095.14
8146945	-1121.43
8148993	-1119.56
8151041	-1094.38
8153089	-1110.89
8155137	-1119.84
8157185	-1099.75
8159233	-1092.31
8161281	-1094.4
8163329	-1097.56
8165377	-1059.24
8167425	-1067.91
8169473	-1076.37
8171521	-1070.08
8173569	-1054.95
8175617	-1074.36
8177665	-1084.52
8179713	-1071.31
8181761	-1075.84
8183809	-1090.06
8185857	-1134.99
8187905	-1135.23
8189953	-1101.23
8192001	-1091.24
8194049	-1105.27
8196097	-1082.42
8198145	-1092.6
8200193	-1100.39
8202241	-1103.15
8204289	-1099.33
8206337	-1082.26
8208385	-1108.58
8210433	-1120.91
8212481	-1128.39
8214529	-1108.78
8216577	-1101.62
8218625	-1076.29
8220673	-1096.55
8222721	-1084.62
8224769	-1061.82
8226817	-1108.2
8228865	-1106.24
8230913	-1143.95
8232961	-1143.24
8235009	-1141.96
8237057	-1119.14
8239105	-1121.65
8241153	-1127.19
8243201	-1117.2
8245249	-1098.03
8247297	-1116.35
8249345	-1066.17
8251393	-1080.32
8253441	-1075.96
8255489	-1076.07
8257537	-1054.49
8259585	-1043.16
8261633	-1063.7
8263681	-1067.43
8265729	-1087.04
8267777	-1051.04
8269825	-1059.16
8271873	-1074.91
8273921	-1057.1
8275969	-1084.81
8278017	-1101.07
8280065	-1118.89
8282113	-1096.49
8284161	-1085.95
8286209	-1064
8288257	-1075.75
8290305	-1078.01
8292353	-1079.34
8294401	-1069.69
8296449	-1061.83
8298497	-1062.87
8300545	-1055.14
8302593	-1074.85
8304641	-1091.62
8306689	-1093.58
8308737	-1099.06
8310785	-1116.57
8312833	-1123.73
8314881	-1120.71
8316929	-1124.25
8318977	-1122.75
8321025	-1092.52
8323073	-1093.14
8325121	-1090.92
8327169	-1089.34
8329217	-1089.26
8331265	-1090.15
8333313	-1095.64
8335361	-1105.59
8337409	-1091.27
8339457	-1097.14
8341505	-1088.54
8343553	-1098.25
8345601	-1100.56
8347649	-1094.35
8349697	-1080.94
8351745	-1125.58
8353793	-1103.46
8355841	-1101.88
8357889	-1109.92
8359937	-1112.85
8361985	-1118.82
8364033	-1094.78
8366081	-1112.44
8368129	-1123.37
8370177	-1112.19
8372225	-1088.02
8374273	-1100.52
8376321	-1085.77
8378369	-1078.29
8380417	-1079.29
8382465	-1086.16
8384513	-1079.93
8386561	-1103.56
8388609	-1080.81
8390657	-1088
8392705	-1101.57
8394753	-1133.02
8396801	-1107.58
8398849	-1120.08
8400897	-1099.71
8402945	-1084.37
8404993	-1072.19
8407041	-1117.94
8409089	-1108.58
8411137	-1097.3
8413185	-1078.52
8415233	-1099.48
8417281	-1105.29
8419329	-1122.79
8421377	-1113.2
8423425	-1106.99
8425473	-1118.77
8427521	-1099.41
8429569	-1076.19
8431617	-1114.47
8433665	-1094.96
8435713	-1081.01
8437761	-1091.42
8439809	-1085.07
8441857	-1075.55
8443905	-1093.33
8445953	-1074.69
8448001	-1063.81
8450049	-1105.18
8452097	-1078.71
8454145	-1068.25
8456193	-1101.96
8458241	-1089.48
8460289	-1091.92
8462337	-1062.82
8464385	-1070.26
8466433	-1075.62
8468481	-1076.27
8470529	-1096.61
8472577	-1115.21
8474625	-1095.96
8476673	-1079.17
8478721	-1096.72
8480769	-1084.22
8482817	-1061.23
8484865	-1063.26
8486913	-1085.51
8488961	-1079.62
8491009	-1065.58
8493057	-1070.79
8495105	-1078.17
8497153	-1071.8
8499201	-1064.2
8501249	-1073.98
8503297	-1057.68
8505345	-1067.56
8507393	-1066.77
8509441	-1056.29
8511489	-1074.97
8513537	-1079.62
8515585	-1069.82
8517633	-1063.29
8519681	-1087.64
8521729	-1072.13
8523777	-1091.43
8525825	-1094.04
8527873	-1079.71
8529921	-1056.25
8531969	-1072.58
8534017	-1078.8
8536065	-1100.22
8538113	-1074.27
8540161	-1078.73
8542209	-1065.17
8544257	-1077.01
8546305	-1063.23
8548353	-1071.05
8550401	-1076.1
8552449	-1063.91
8554497	-1087.98
8556545	-1077.57
8558593	-1082.09
8560641	-1109.54
8562689	-1079.04
8564737	-1087.57
8566785	-1104.57
8568833	-1075.33
8570881	-1086.99
8572929	-1083.31
8574977	-1070.26
8577025	-1055.77
8579073	-1055.43
8581121	-1026.29
8583169	-1062
8585217	-1073.63
8587265	-1078.94
8589313	-1098.44
8591361	-1081.08
8593409	-1070.71
8595457	-1098.65
8597505	-1092.49
8599553	-1072.6
8601601	-1071.25
8603649	-1088.26
8605697	-1081.29
8607745	-1073.32
8609793	-1054.11
8611841	-1056.58
8613889	-1078.62
8615937	-1062.2
8617985	-1072.93
8620033	-1052.9
8622081	-1071.62
8624129	-1091.67
8626177	-1098.84
8628225	-1095.31
8630273	-1080.94
8632321	-1111.65
8634369	-1092.64
8636417	-1087.79
8638465	-1095.74
8640513	-1081.68
8642561	-1085.43
8644609	-1103.24
8646657	-1097.05
8648705	-1085.16
8650753	-1082.34
8652801	-1085.5
8654849	-1062.12
8656897	-1066.75
8658945	-1058.09
8660993	-1104.89
8663041	-1094.44
8665089	-1104.34
8667137	-1083.97
8669185	-1101.1
8671233	-1098.4
8673281	-1103.16
8675329	-1106.79
8677377	-1083.49
8679425	-1064.26
8681473	-1057.14
8683521	-1072.9
8685569	-1095.25
8687617	-1069.35
8689665	-1074.17
8691713	-1067.08
8693761	-1067.75
8695809	-1069.05
8697857	-1080.85
8699905	-1070.76
8701953	-1073.45
8704001	-1070.12
8706049	-1079.72
8708097	-1051.81
8710145	-1048.61
8712193	-1077.37
8714241	-1056.75
8716289	-1053.13
8718337	-1069.09
8720385	-1076.6
8722433	-1066.61
8724481	-1067.95
8726529	-1053.88
8728577	-1070.59
8730625	-1093.87
8732673	-1107.9
8734721	-1086.24
8736769	-1094.47
8738817	-1104.6
8740865	-1126.99
8742913	-1100.73
8744961	-1086.76
8747009	-1112.1
8749057	-1097.03
8751105	-1083.26
8753153	-1059.61
8755201	-1074.78
8757249	-1062.71
8759297	-1076.76
8761345	-1088.98
8763393	-1085.7
8765441	-1063.78
8767489	-1064.4
8769537	-1055.96
8771585	-1103.83
8773633	-1089.07
8775681	-1069.54
8777729	-1053.3
8779777	-1061.24
8781825	-1056.24
8783873	-1077.34
8785921	-1097.34
8787969	-1081.74
8790017	-1067.87
8792065	-1079.42
8794113	-1070.19
8796161	-1071.24
8798209	-1072.91
8800257	-1098.71
8802305	-1078.81
8804353	-1072.15
8806401	-1074.05
8808449	-1045.08
8810497	-1058.82
8812545	-1079.37
8814593	-1049.74
8816641	-1046.2
8818689	-1091.53
8820737	-1069.22
8822785	-1071.36
8824833	-1076.17
8826881	-1098.55
8828929	-1116.22
8830977	-1118.34
8833025	-1122.84
8835073	-1115.99
8837121	-1121.35
8839169	-1105.08
8841217	-1104.45
8843265	-1099.36
8845313	-1080.95
8847361	-1089.03
8849409	-1079.83
8851457	-1099.73
8853505	-1092.82
8855553	-1093.67
8857601	-1115.91
8859649	-1098.52
8861697	-1096.75
8863745	-1082.15
8865793	-1080.25
8867841	-1074.34
8869889	-1071.9
8871937	-1091.64
8873985	-1093.7
8876033	-1103.24
8878081	-1102.29
8880129	-1099.11
8882177	-1071.07
8884225	-1079.97
8886273	-1065.32
8888321	-1090.43
8890369	-1094.88
8892417	-1115.2
8894465	-1092.77
8896513	-1091.41
8898561	-1077.82
8900609	-1107.84
8902657	-1126.12
8904705	-1112.48
8906753	-1111.26
8908801	-1112.99
8910849	-1093.74
8912897	-1083.17
8914945	-1100.52
8916993	-1097.11
8919041	-1075.28
8921089	-1073.32
8923137	-1113.25
8925185	-1106.6
8927233	-1111.75
8929281	-1095.48
8931329	-1071.45
8933377	-1093.23
8935425	-1059.46
8937473	-1074.52
8939521	-1079.43
8941569	-1069.71
8943617	-1069.93
8945665	-1068.98
8947713	-1072.95
8949761	-1106.43
8951809	-1097.21
8953857	-1059.35
8955905	-1068.18
8957953	-1106.42
8960001	-1094.18
8962049	-1094.53
8964097	-1091.01
8966145	-1098.39
8968193	-1086.13
8970241	-1074.37
8972289	-1080.31
8974337	-1073.34
8976385	-1082.24
8978433	-1065.68
8980481	-1066.72
8982529	-1069.23
8984577	-1057.47
8986625	-1081.25
8988673	-1068.91
8990721	-1082.71
8992769	-1085.3
8994817	-1067.88
8996865	-1092.58
8998913	-1116.99
9000961	-1101.85
9003009	-1095.42
9005057	-1082.63
9007105	-1078.31
9009153	-1092.84
9011201	-1087.73
9013249	-1096.79
9015297	-1084.46
9017345	-1079.67
9019393	-1091.07
9021441	-1078.9
9023489	-1071.94
9025537	-1103.91
9027585	-1089.74
9029633	-1100.29
9031681	-1117.21
9033729	-1048.43
9035777	-1041.97
9037825	-1050.58
9039873	-1079.97
9041921	-1065.02
9043969	-1052.64
9046017	-1041.91
9048065	-1064.25
9050113	-1111
9052161	-1090.13
9054209	-1063.46
9056257	-1070.88
9058305	-1079.75
9060353	-1117.58
9062401	-1108.81
9064449	-1086.14
9066497	-1083.81
9068545	-1072.94
9070593	-1072
9072641	-1049.27
9074689	-1039.55
9076737	-1052.29
9078785	-1034.77
9080833	-1045.17
9082881	-1052.32
9084929	-1070.17
9086977	-1068.71
9089025	-1068.7
9091073	-1064.84
9093121	-1085.37
9095169	-1056.72
9097217	-1030.54
9099265	-1042.89
9101313	-1013.33
9103361	-1041.26
9105409	-1042.31
9107457	-1049.13
9109505	-1028.38
9111553	-1055.15
9113601	-1057.11
9115649	-1048.46
9117697	-1045.7
9119745	-1069.75
9121793	-1090.19
9123841	-1079.22
9125889	-1096.71
9127937	-1088.85
9129985	-1090.89
9132033	-1059.1
9134081	-1088.6
9136129	-1079.51
9138177	-1091.93
9140225	-1091.27
9142273	-1079.04
9144321	-1095.13
9146369	-1092.24
9148417	-1130.76
9150465	-1103.83
9152513	-1100.41
9154561	-1071.51
9156609	-1076.5
9158657	-1087.52
9160705	-1092.98
9162753	-1094.38
9164801	-1089.3
9166849	-1121.39
9168897	-1111.56
9170945	-1103.64
9172993	-1093.64
9175041	-1106.66
9177089	-1102.53
9179137	-1073.67
9181185	-1048.5
9183233	-1064.03
9185281	-1074.45
9187329	-1078.15
9189377	-1079.82
9191425	-1090.12
9193473	-1058.77
9195521	-1136.85
9197569	-1095.17
9199617	-1079.71
9201665	-1100.05
9203713	-1093.83
9205761	-1128.93
9207809	-1098.88
9209857	-1093.61
9211905	-1133.58
9213953	-1093.17
9216001	-1103.74
9218049	-1083.41
9220097	-1069.05
9222145	-1090.78
9224193	-1097.42
9226241	-1045.95
9228289	-1088.98
9230337	-1089.75
9232385	-1080.63
9234433	-1015.82
9236481	-1035.19
9238529	-1074.84
9240577	-1045.17
9242625	-1021.16
9244673	-1062.86
9246721	-1073.95
9248769	-1056.23
9250817	-1045.71
9252865	-1063.76
9254913	-1053.13
9256961	-1080.66
9259009	-1088.85
9261057	-1071.64
9263105	-1057.3
9265153	-1063.72
9267201	-1071.11
9269249	-1086.1
9271297	-1082.35
9273345	-1090.28
9275393	-1066.2
9277441	-1092.86
9279489	-1107.44
9281537	-1088.66
9283585	-1103.74
9285633	-1091.25
9287681	-1078.29
9289729	-1080.05
9291777	-1068.43
9293825	-1088.44
9295873	-1086.9
9297921	-1094.14
9299969	-1126.3
9302017	-1117.59
9304065	-1108.25
9306113	-1105.9
9308161	-1087.76
9310209	-1105.34
9312257	-1102.14
9314305	-1115.8
9316353	-1122.41
9318401	-1157.86
9320449	-1131.73
9322497	-1128.07
9324545	-1119.14
9326593	-1119.72
9328641	-1092.65
9330689	-1090.54
9332737	-1074.37
9334785	-1085.58
9336833	-1080.35
9338881	-1075.52
9340929	-1068.1
9342977	-1088.42
9345025	-1068.91
9347073	-1054.26
9349121	-1064.66
9351169	-1075.85
9353217	-1062.86
9355265	-1073.65
9357313	-1093.76
9359361	-1088.44
9361409	-1061.35
9363457	-1092.62
9365505	-1118.22
9367553	-1112.32
9369601	-1099.94
9371649	-1087.77
9373697	-1102.25
9375745	-1085.88
9377793	-1061.35
9379841	-1077.32
9381889	-1091.21
9383937	-1105.36
9385985	-1105.01
9388033	-1100.35
9390081	-1083.81
9392129	-1099.25
9394177	-1070.83
9396225	-1062.28
9398273	-1074.68
9400321	-1070.97
9402369	-1074.41
9404417	-1074.62
9406465	-1082.91
9408513	-1086.1
9410561	-1062.35
9412609	-1055.36
9414657	-1063.94
9416705	-1074.66
9418753	-1066.3
9420801	-1051.52
9422849	-1048.57
9424897	-1078.32
9426945	-1119.75
9428993	-1095.63
9431041	-1083.05
9433089	-1085.6
9435137	-1103.66
9437185	-1071.39
9439233	-1083.22
9441281	-1059.25
9443329	-1073.77
9445377	-1086.59
9447425	-1075.19
9449473	-1059.74
9451521	-1062.95
9453569	-1056.42
9455617	-1067.79
9457665	-1094.27
9459713	-1084.2
9461761	-1058.61
9463809	-1079.67
9465857	-1086.52
9467905	-1078.78
9469953	-1063.78
9472001	-1050.15
9474049	-1077.76
9476097	-1084.67
9478145	-1076.79
9480193	-1075.25
9482241	-1093.67
9484289	-1079.18
9486337	-1078.9
9488385	-1078.02
9490433	-1068.85
9492481	-1060.69
9494529	-1083.44
9496577	-1075.71
9498625	-1063.15
9500673	-1076.73
9502721	-1057.7
9504769	-1069.4
9506817	-1070.35
9508865	-1065.6
9510913	-1028.21
9512961	-1032.09
9515009	-1057.94
9517057	-1061.42
9519105	-1068.93
9521153	-1070.76
9523201	-1066.87
9525249	-1066.6
9527297	-1045.51
9529345	-1055.08
9531393	-1071.86
9533441	-1083.45
9535489	-1070.04
9537537	-1098.9
9539585	-1071.01
9541633	-1082.06
9543681	-1051.64
9545729	-1048.1
9547777	-1065.7
9549825	-1080.46
9551873	-1072.04
9553921	-1058.06
9555969	-1019.44
9558017	-1067.54
9560065	-1079.51
9562113	-1087.65
9564161	-1077.02
9566209	-1057.72
9568257	-1085.24
9570305	-1071.47
9572353	-1070.8
9574401	-1094.84
9576449	-1101.03
9578497	-1062.64
9580545	-1059.22
9582593	-1043.23
9584641	-1058.03
9586689	-1050.35
9588737	-1045.66
9590785	-1056.03
9592833	-1045.39
9594881	-1012.13
9596929	-1052.7
9598977	-1052.96
9601025	-1077.87
9603073	-1052.49
9605121	-1058.1
9607169	-1063.6
9609217	-1061.66
9611265	-1043.69
9613313	-1060.74
9615361	-1049.72
9617409	-1073.21
9619457	-1065.85
9621505	-1079.67
9623553	-1083.71
9625601	-1104.16
9627649	-1081.29
9629697	-1047.89
9631745	-1053.79
9633793	-1069.94
9635841	-1086.02
9637889	-1075.88
9639937	-1071.99
9641985	-1045
9644033	-1089.28
9646081	-1063.16
9648129	-1089.79
9650177	-1067.83
9652225	-1065.53
9654273	-1097.46
9656321	-1046
9658369	-1066.13
9660417	-1063.61
9662465	-1088.57
9664513	-1092.05
9666561	-1090.56
9668609	-1092.9
9670657	-1106.39
9672705	-1096.53
9674753	-1145.49
9676801	-1099.48
9678849	-1093.6
9680897	-1086.73
9682945	-1075.34
9684993	-1081.79
9687041	-1089.99
9689089	-1090.29
9691137	-1084.94
9693185	-1081.11
9695233	-1075.63
9697281	-1086.41
9699329	-1079.21
9701377	-1092.17
9703425	-1070.29
9705473	-1096.4
9707521	-1098.42
9709569	-1100.1
9711617	-1068.94
9713665	-1068.45
9715713	-1065.97
9717761	-1056.06
9719809	-1066.43
9721857	-1033.44
9723905	-1062.17
9725953	-1082.65
9728001	-1062.55
9730049	-1060.28
9732097	-1081.95
9734145	-1077.57
9736193	-1109.7
9738241	-1070.25
9740289	-1083.59
9742337	-1102.14
9744385	-1096.21
9746433	-1103.22
9748481	-1076.18
9750529	-1088.02
9752577	-1079.45
9754625	-1104.97
9756673	-1101.49
9758721	-1071.27
9760769	-1076.11
9762817	-1085.69
9764865	-1081.91
9766913	-1072.42
9768961	-1063.65
9771009	-1056.61
9773057	-1067.87
9775105	-1078.17
9777153	-1063.97
9779201	-1049.91
9781249	-1068.84
9783297	-1043.52
9785345	-1043.61
9787393	-1081.32
9789441	-1061.03
9791489	-1050.74
9793537	-1054.25
9795585	-1079.59
9797633	-1090.42
9799681	-1064.82
9801729	-1073.75
9803777	-1070.63
9805825	-1102.28
9807873	-1096.95
9809921	-1059.18
9811969	-1064.49
9814017	-1072.76
9816065	-1059.11
9818113	-1078.94
9820161	-1073.91
9822209	-1053.68
9824257	-1070.11
9826305	-1085.27
9828353	-1059.13
9830401	-1049.2
9832449	-1089.16
9834497	-1110.32
9836545	-1094.68
9838593	-1085.69
9840641	-1068.47
9842689	-1076.1
9844737	-1078.7
9846785	-1099.23
9848833	-1072.81
9850881	-1083.82
9852929	-1091.39
9854977	-1110.1
9857025	-1122.5
9859073	-1083.24
9861121	-1096.3
9863169	-1076.99
9865217	-1044.07
9867265	-1091.6
9869313	-1075.69
9871361	-1098.66
9873409	-1061.06
9875457	-1063.32
9877505	-1058.76
9879553	-1051.8
9881601	-1079.23
9883649	-1066.48
9885697	-1083.27
9887745	-1089.45
9889793	-1067.48
9891841	-1074.22
9893889	-1061.13
9895937	-1104.42
9897985	-1080.46
9900033	-1076.79
9902081	-1085.58
9904129	-1079.33
9906177	-1086.86
9908225	-1094.81
9910273	-1085.59
9912321	-1064.89
9914369	-1089.44
9916417	-1080.61
9918465	-1075.65
9920513	-1064.45
9922561	-1096.55
9924609	-1106.37
9926657	-1073.38
9928705	-1071.88
9930753	-1067.61
9932801	-1071.51
9934849	-1081.1
9936897	-1073.7
9938945	-1076.61
9940993	-1062.8
9943041	-1055.8
9945089	-1056.06
9947137	-1116.34
9949185	-1093.11
9951233	-1067.09
9953281	-1058.26
9955329	-1055.62
9957377	-1062.21
9959425	-1059.67
9961473	-1061.56
9963521	-1061.16
9965569	-1052.81
9967617	-1044.09
9969665	-1065.56
9971713	-1057.27
9973761	-1068.7
9975809	-1065.1
9977857	-1060.29
9979905	-1074.77
9981953	-1063.3
9984001	-1064.03
9986049	-1065.12
9988097	-1076.35
9990145	-1067.49
9992193	-1056.23
9994241	-1087.47
9996289	-1085.99
9998337	-1110.92
